node_idx,x,v,theta,omega,force,time
0.0,-2.5999736382559886e-05,0.011954605195495727,0.01828565252308958,-0.005448954921825015,10.645962978613065,0.0
1.0,0.0025318624816151112,0.24991014506828854,0.045420045916347636,-0.23843919091394364,10.798371549683997,0.02
2.0,0.009962150322462388,0.491343250063929,0.07608750369735635,-0.4745782130468041,10.641208943925124,0.04
3.0,0.022219759255855037,0.7252095813604269,0.10597773832924305,-0.7017449263321276,10.44875230773417,0.06
4.0,0.03907372907489037,0.94762714048642,0.13273573526066432,-0.9148839159520901,10.250712913742307,0.08
5.0,0.06026339214667851,1.1579055890307286,0.15524446125805033,-1.1128124201777967,10.089279562113795,0.1
6.0,0.08352095903931585,1.154854075514828,0.17419826386040344,-1.0980066812467673,-10.19071531755986,0.12000000000000001
7.0,0.10453717432843765,0.9379447215765067,0.1964269970027096,-0.8720550382059488,-10.328550681834782,0.14
8.0,0.12104885485803923,0.7102061254559927,0.22325269174351223,-0.6357071629237185,-10.477304535768088,0.16
9.0,0.13298790211068406,0.4753639527600911,0.2548434192906773,-0.39303930083034927,-10.563039594939399,0.18
10.0,0.14031791005577451,0.2380848878544764,0.292312954552166,-0.14928168872815578,-10.608296535734336,0.19999999999999998
11.0,0.14289340913029822,0.0015506492598274023,0.33554799530509816,0.09086793153961588,-10.627127875354633,0.21999999999999997
12.0,0.14073752542890525,-0.23323924237321197,0.383543550020054,0.3238526579749964,-10.627088574448221,0.23999999999999996
13.0,0.13399909675352706,-0.4667575281536886,0.4370298242084261,0.5464467067112816,-10.611787865475554,0.25999999999999995
14.0,0.12264416999128415,-0.6968727697771202,0.4956847262564146,0.7556343700611029,-10.582520393776235,0.27999999999999997
15.0,0.10695972631965069,-0.9209989518910336,0.5584501366855397,0.9489915392797885,-10.539091152975987,0.3
16.0,0.08692365005112128,-1.1395091854335324,0.6248480849764299,1.1245662046167673,-10.480981585422413,0.32
17.0,0.06220993384518461,-1.353727233701096,0.6950363541883546,1.280630530765924,-10.407821712881049,0.34
18.0,0.03310874728631236,-1.5611735778237477,0.7688111180791469,1.4158343942451663,-10.321561228506338,0.36000000000000004
19.0,3.3542899179106076e-05,-1.7582958456896935,0.8459334295350277,1.5295013261885435,-10.227991642776614,0.38000000000000006
20.0,-0.036685034927258144,-1.9468217650352253,0.9266292730540208,1.6218648070412542,-10.138219400892437,0.4000000000000001
21.0,-0.07707401160213027,-2.1291965337159344,1.0143432344610515,1.6936356846150153,-10.06613065023669,0.4200000000000001
22.0,-0.11970420720143361,-2.1818655474631354,1.1179427434581497,1.6897598595063537,3.46797214799385,0.4400000000000001
23.0,-0.16134049540888365,-2.0438924498089595,1.2201628869009242,1.5998778723680782,10.190212422120222,0.46000000000000013
24.0,-0.19993138200075786,-1.8490065723048952,1.309617414949062,1.4954695089206265,10.3052387113861,0.48000000000000015
25.0,-0.23403511371382943,-1.6313965338202092,1.3914417673911303,1.4031767007312401,10.377974598179804,0.5000000000000001
26.0,-0.26384662025995304,-1.4244954792266211,1.4689342466669038,1.3234397985221487,10.428904113359609,0.5200000000000001
27.0,-0.29078484586779746,-1.1885213417293798,1.5441433672125149,1.25680207141402,10.465029600938859,0.5400000000000001
28.0,-0.3126569823109507,-0.9901737866141669,1.6178769661611783,1.2037575081322212,10.489437624022766,0.5600000000000002
29.0,-0.33110849238149176,-0.777185389449044,1.6902279920069516,1.164553116804522,10.503965907083945,0.5800000000000002
30.0,-0.3474883604090375,-0.5672922041627535,1.761957339363684,1.139396404547239,10.50939241502132,0.6000000000000002
31.0,-0.356899905516992,-0.34015120720072844,1.8326206707011958,1.1283101518526093,10.50639570284177,0.6200000000000002
32.0,-0.364408955069261,-0.13191862769254536,1.902920693840132,1.1312316214948324,10.49504275448923,0.6400000000000002
33.0,-0.35822601579334284,0.1020358303926166,1.973032202819833,1.148085940656212,10.475854830783558,0.6600000000000003
34.0,-0.35284199951341444,0.32544610948935665,2.0432778958824014,1.1787261660787667,10.448405027247738,0.6800000000000003
35.0,-0.34281903454660345,0.5356601278334596,2.1142315030975265,1.22311011811355,10.412750355040709,0.7000000000000003
36.0,-0.32752096027163863,0.7583922313247506,2.185979846297094,1.281123945440157,10.368884119711526,0.7200000000000003
37.0,-0.30842811531950237,0.9787577867131226,2.2580896046292502,1.3524440044038328,10.317421578763758,0.7400000000000003
38.0,-0.28920839216733024,1.1676216896256564,2.3310425460435287,1.4367753646961314,10.258697493992686,0.7600000000000003
39.0,-0.26143429338903584,1.3943763109239022,2.405324371463819,1.5339917393818039,10.194345300643496,0.7800000000000004
40.0,-0.2312549777431407,1.5838476907703767,2.480679299074027,1.644081002188064,10.127459708594962,0.8000000000000004
41.0,-0.20113850860511878,1.7951575189641145,2.5561271613730203,1.7671262577136604,10.065063494428015,0.8200000000000004
42.0,-0.17073614545579402,1.8264736804608577,2.6276377086484057,1.7518708369901328,-7.703277960406449,0.8400000000000004
43.0,-0.12314335291746907,1.6387174095709065,2.7042565990563,1.568484969366428,-10.112743493824588,0.8600000000000004
44.0,-0.09674179795950198,1.4272111853815246,2.7805884885574748,1.3584569938386344,-10.191811125017239,0.8800000000000004
45.0,-0.05196759484008335,1.230948934173142,2.8523622890361673,1.141780560665328,-10.278313474788419,0.9000000000000005
46.0,-0.021171726390572906,0.964270885248546,2.9194136742013126,0.9192050880210293,-10.36377484308113,0.9200000000000005
47.0,-6.485788455261996e-05,0.7633784891353267,2.983402445155266,0.6918846293753843,-10.443518341845635,0.9400000000000005
48.0,-0.006902760033594799,0.47853945935452125,3.0356830416131415,0.46089680567314945,-10.514596322582104,0.9600000000000005
49.0,-0.0018189474057063936,0.23887907542667863,3.081880997795229,0.2292115442765696,-10.575674396493575,0.9800000000000005
50.0,0.0001293686362194504,0.009066791240823697,3.1167254285530457,0.0030676312284872425,-10.467333720038914,1.0000000000000004
