node_idx,x,v,theta,omega,force,time
0.0,-1.3118315158662713e-06,0.0018520206422627473,0.01202188546293201,4.7267377519276575e-05,11.575564050376673,0.0
1.0,0.0024964344827597307,0.24923095859796474,0.04698586487790971,-0.24572751989846917,11.949061995550673,0.02
2.0,0.009972500270136514,0.4975591329009474,0.08530600928215266,-0.49184942112527946,11.564643425441018,0.04
3.0,0.022307486260419278,0.7342100335877573,0.12020111525509929,-0.7239630989600645,11.094124203408478,0.06
4.0,0.03924107660832791,0.9573203934042079,0.15080928259793047,-0.9391085938285558,10.609166456915522,0.08
5.0,0.0605092900845128,1.1678604977905755,0.17723970430519714,-1.137687798597285,10.21080113850359,0.1
6.0,0.08466562307209831,1.2461838907038245,0.20023371825250247,-1.2023580363250321,-2.3555809474400986,0.12000000000000001
7.0,0.10825876488190292,1.1114657654472675,0.22390102660381267,-1.055339399289161,-10.791194868909393,0.14
8.0,0.12823878884925358,0.8851967676488464,0.25201615904490654,-0.8178148856144808,-11.158755143722335,0.16
9.0,0.14360995124067572,0.651206224159367,0.2851105489847802,-0.5735891299645757,-11.369419051828187,0.18
10.0,0.15426072732105078,0.41341587417750236,0.32316249438966527,-0.3282377728646467,-11.480540497327924,0.19999999999999998
11.0,0.16013863231652115,0.1744408861862522,0.3661527667652984,-0.08605421727597082,-11.526869456298918,0.21999999999999997
12.0,0.16124453440788558,-0.06390623258504405,0.4139797176646668,0.14945148673015432,-11.526944846246199,0.23999999999999996
13.0,0.15760214532623576,-0.3001426138829898,0.4664818098223495,0.37523965726327746,-11.489567146337206,0.25999999999999995
14.0,0.14926843855161556,-0.5330509378011999,0.5234724135248475,0.5885701873288085,-11.417973668857778,0.27999999999999997
15.0,0.13632024348629473,-0.7614256403899647,0.5846931752052568,0.7869490423915778,-11.312044176158201,0.3
16.0,0.11885967826673005,-0.9841956085331668,0.6498623839788226,0.9681277113861241,-11.170018294176987,0.32
17.0,0.09701097285562098,-1.2002572671485296,0.7186464809141557,1.1301734906990586,-10.991076559400868,0.34
18.0,0.07091353511779204,-1.4086747390705259,0.7906468920273718,1.2716109389602894,-10.779875396701984,0.36000000000000004
19.0,0.040727497125266056,-1.6088974051139475,0.8654518612168779,1.3916054349663403,-10.551113916251865,0.38000000000000006
20.0,0.006618731746445274,-1.8010005783258989,0.94262833316492,1.490118991156864,-10.330366650271072,0.4000000000000001
21.0,-0.031260395882538886,-1.9858395442458405,1.0220251213200662,1.5679309819327114,-10.148430454013209,0.4200000000000001
22.0,-0.07255887962254833,-2.1428679233702774,1.1054953667616516,1.6164856532563627,-7.6558428811593755,0.4400000000000001
23.0,-0.11506699173302898,-2.107061757700326,1.1978423452409779,1.5771554444445424,10.456356308091758,0.46000000000000013
24.0,-0.15515416135695093,-1.9000067483997152,1.2791417158192775,1.4743726645913042,10.741150826031637,0.48000000000000015
25.0,-0.19104860646137284,-1.6885163111301063,1.3568844274761414,1.3827855136916285,10.919709921646755,0.5000000000000001
26.0,-0.22268460217317662,-1.4744158143047912,1.432613140277614,1.3035799786785771,11.04463267176217,0.5200000000000001
27.0,-0.2500205160660105,-1.2586931022876264,1.50675121478572,1.2375071797717507,11.132994416144284,0.5400000000000001
28.0,-0.27303293059699196,-1.0419387664340178,1.579589333568895,1.185042845801829,11.192576187149392,0.5600000000000002
29.0,-0.2917026971284033,-0.8246060407336433,1.6514130760670673,1.146477289917081,11.227624231869056,0.5800000000000002
30.0,-0.30603897794484347,-0.6070814554098908,1.7224996879728134,1.1219672362802837,11.240602068377278,0.6000000000000002
31.0,-0.31602006758318374,-0.38966170549107987,1.7931351533519875,1.111570791208321,11.23289327026681,0.6200000000000002
32.0,-0.32164954634925935,-0.17266561742999795,1.8635981354935829,1.115270923298531,11.205160900250318,0.6400000000000002
33.0,-0.32293961360942275,0.0436097789970755,1.9341656018708338,1.1329914470870173,11.157587092651598,0.6600000000000003
34.0,-0.3199125245944674,0.25882921428634265,2.005115310925741,1.1646080158814622,11.090075581505708,0.6800000000000003
35.0,-0.31259355495293345,0.47266538995014695,2.0767186160312647,1.2099549069670297,11.002475859392163,0.7000000000000003
36.0,-0.3010139446908129,0.6848195278468615,2.1492511976887285,1.2688307376794987,10.894860601501831,0.7200000000000003
37.0,-0.28521729140151353,0.894887223355533,2.2229698628032875,1.3410013323615255,10.767875190142679,0.7400000000000003
38.0,-0.26524504355386574,1.1026017917036506,2.298138496162846,1.4262107293388677,10.62318458312629,0.7600000000000003
39.0,-0.24114076582006663,1.3076507066296645,2.375020463219416,1.5242035275938068,10.46417923068896,0.7800000000000004
40.0,-0.2129479024888081,1.5098816559642538,2.453830740633313,1.6347768548073323,10.297265793586147,0.8000000000000004
41.0,-0.18074365553911192,1.7092833043050006,2.534451445331521,1.757883999689326,10.132102280630686,0.8200000000000004
42.0,-0.1462183254364521,1.741472725421368,2.6131937309737747,1.7512800957623968,-6.8724389022276355,0.8400000000000004
43.0,-0.11306629283130877,1.573029425761627,2.6934953257123415,1.5776960584971431,-10.25461235311666,0.8600000000000004
44.0,-0.08367165936644602,1.3662462762629302,2.771008041494174,1.3693162741675429,-10.45859022459798,0.8800000000000004
45.0,-0.058473867009597655,1.152364575187159,2.8442670708913886,1.1536038687230716,-10.673634222609657,0.9000000000000005
46.0,-0.03760207698766696,0.9316252037931283,2.9129827587467276,0.931228311917453,-10.884368700032935,0.9200000000000005
47.0,-0.021216188240304686,0.7046994969113192,2.9770108326756435,0.7030064059142469,-11.079876409164592,0.9400000000000005
48.0,-0.009438995694074475,0.47225138614353196,3.036117492825416,0.4698487586172246,-11.253654847756106,0.9600000000000005
49.0,-0.002357509047831659,0.23549067414511957,3.0890245036333197,0.23301589798753075,-11.403756267754693,0.9800000000000005
50.0,8.691774786151834e-07,0.0012855990329646934,3.1293994244115835,-0.00034527493921192786,-11.1364722503531,1.0000000000000004
