node_idx,x,v,theta,omega,force,time
0.0,-5.355742629352292e-07,0.0011070288316831986,0.009720808238383285,0.0003157473636777338,11.712471638789753,0.0
1.0,0.002495002844673836,0.24921778641941872,0.046347113712424004,-0.24641535111025517,12.118435048865386,0.02
2.0,0.009971974688342464,0.49785434582302507,0.08538623466581337,-0.4929722562861981,11.700615965158224,0.04
3.0,0.022307552287457476,0.7345612993128103,0.12055654724899138,-0.7251586963251045,11.189226331176656,0.06
4.0,0.0392414072379507,0.9576492390444975,0.15136021429059837,-0.9402607250388941,10.662151968494106,0.08
5.0,0.06050961930964061,1.1681293032827995,0.17800537553332094,-1.13873526408688,10.229199641647233,0.1
6.0,0.08466679319436012,1.2465943877986174,0.20137857713521917,-1.2034910626009412,-2.3472720191556387,0.12000000000000001
7.0,0.10826263734431144,1.1119708583896957,0.22547262771335538,-1.0565305029405236,-10.859802110813447,0.14
8.0,0.12824605968996913,0.8855677660433142,0.25388038591338835,-0.8188514434573115,-11.25928622585792,0.16
9.0,0.1436216868876693,0.6515103377452366,0.2872111711033974,-0.5745146084645482,-11.48824581647221,0.18
10.0,0.15427618140741145,0.41368382038391077,0.32548234117154246,-0.32908389018652157,-11.609015393151859,0.19999999999999998
11.0,0.16016055692130973,0.174668660963125,0.3686703569349649,-0.08684052877226296,-11.6593636934345,0.21999999999999997
12.0,0.16127094359430771,-0.06369377996836488,0.41667339614783483,0.14871525906859162,-11.65944046515194,0.23999999999999996
13.0,0.15763370801660578,-0.2999644256300955,0.4693397641720733,0.37454733011990327,-11.618811015529069,0.25999999999999995
14.0,0.14930336046288284,-0.532893649401168,0.5264694475912346,0.587920660042454,-11.54099420166089,0.27999999999999997
15.0,0.13635902237815167,-0.7613139720278329,0.5878050155427926,0.7863416438113002,-11.425859633953113,0.3
16.0,0.11890060669312162,-0.9841147518062512,0.6530528523183112,0.9675631100593839,-11.271494395700904,0.32
17.0,0.09705489668424612,-1.2001981804103856,0.7218705103992761,1.1296516876888842,-11.077008401837777,0.34
18.0,0.07096142936951728,-1.4086397690050156,0.7938732570935615,1.2711270666895584,-10.847463345689906,0.36000000000000004
19.0,0.040779787737190334,-1.6088724613426189,0.8686389780638503,1.3911505979272243,-10.598836109396673,0.38000000000000006
20.0,0.006675423043252335,-1.8009673179702,0.9457337134997037,1.4896776083516483,-10.358923284991167,0.4000000000000001
21.0,-0.03119814000146936,-1.9857951918473384,1.0248817036339566,1.5674719091168607,-10.161196403249352,0.4200000000000001
22.0,-0.07249421100843137,-2.1430299010149825,1.107304699599501,1.6161117899246091,-7.67128333082146,0.4400000000000001
23.0,-0.11500521202413429,-2.107373891555217,1.1969806685291524,1.5769477350885084,10.496087607677342,0.46000000000000013
24.0,-0.1550905458389447,-1.9002751933223587,1.2773913772336638,1.4742422379198863,10.805608090933067,0.48000000000000015
25.0,-0.19098672779922446,-1.6887466917966603,1.3548220996293985,1.3826852253005364,10.999663966784164,0.5000000000000001
26.0,-0.22262735512525172,-1.4746302448842685,1.430348344598784,1.303510342186909,11.135423369745695,0.5200000000000001
27.0,-0.2499695103617624,-1.258876569280459,1.5043159777425692,1.2374707051065277,11.23144522750827,0.5400000000000001
28.0,-0.2729862327618268,-1.0421022307024645,1.5770111172655052,1.1850422958363869,11.296186541793558,0.5600000000000002
29.0,-0.29165980881169973,-0.8247493385060585,1.64871258617847,1.146515392389129,11.334262587035434,0.5800000000000002
30.0,-0.3059836305213539,-0.607191467865472,1.7197025984470657,1.1220462895337813,11.348351045743527,0.6000000000000002
31.0,-0.315957618842486,-0.3897487353691023,1.7902662837974168,1.11169300567464,11.339955882382428,0.6200000000000002
32.0,-0.3215837531297636,-0.1727308439150943,1.860681922753031,1.1154382828991776,11.309797988163954,0.6400000000000002
33.0,-0.32287887047945385,0.04355977441121438,1.9312303311118373,1.133205878761904,11.258075586465534,0.6600000000000003
34.0,-0.31985928794346435,0.25879277479759333,2.0021885428422896,1.1648714672463323,11.18468435595529,0.6800000000000003
35.0,-0.31254597213081425,0.4726618931063317,2.0738293400979444,1.2102688134881545,11.089461066848814,0.7000000000000003
36.0,-0.3009708513417345,0.6848109975441181,2.146425189881787,1.2691953563085272,10.972485150936626,0.7200000000000003
37.0,-0.28517028980574893,0.8949133760467152,2.2202419286182686,1.3414165174189416,10.834458539786032,0.7400000000000003
38.0,-0.26519365836417036,1.1026430501331455,2.295541732017134,1.4266756135068166,10.67719139332248,0.7600000000000003
39.0,-0.24108625407501574,1.3077095495255544,2.3725860271513413,1.5247156425622355,10.504369212842674,0.7800000000000004
40.0,-0.21290605615548705,1.5099472375135576,2.4516128432870548,1.6353253808326993,10.322955514665761,0.8000000000000004
41.0,-0.1807066691983164,1.7093619682502432,2.5326398323528423,1.7584346872680743,10.143446740247049,0.8200000000000004
42.0,-0.14619495781777336,1.741587254686178,2.6123443792865877,1.7519102633325452,-6.871003808632436,0.8400000000000004
43.0,-0.11304403481077976,1.5731866624635633,2.692971361917616,1.5784455483482165,-10.276838810413167,0.8600000000000004
44.0,-0.08363908992631153,1.3663984919607044,2.770519382815021,1.370115998808229,-10.498524357828275,0.8800000000000004
45.0,-0.05844332988375745,1.1525153814577431,2.8437945081708382,1.154440318300622,-10.732235894120368,0.9000000000000005
46.0,-0.03759171051113192,0.9318080893012887,2.912570586674066,0.9320863281883048,-10.96126298256978,0.9200000000000005
47.0,-0.021215579551437193,0.7048532297586177,2.976709838872531,0.703868587053994,-11.173740281816649,0.9400000000000005
48.0,-0.00943891520119793,0.4723990170819894,3.036040769889287,0.47066576195344406,-11.362601118136325,0.9600000000000005
49.0,-0.0023565940735888386,0.2354587966130764,3.0896420212078803,0.23355725491154808,-11.525733120708258,0.9800000000000005
50.0,3.2003599423699037e-07,0.000757819384896907,3.131737716385133,-0.00045660303526450494,-11.235217083524528,1.0000000000000004
