node_idx,x,v,theta,omega,force,time
0.0,3.6547751419189266e-09,-8.273680332970261e-08,0.0012141777176190199,0.00013773271856825067,12.13245766802995,0.0
1.0,0.0024900397850815942,0.24897950314444584,0.04559900166377724,-0.24831827225624672,12.65880256596117,0.02
2.0,0.009957791050792367,0.49774368134212965,0.08621624531178244,-0.49521667601761743,12.125595588689253,0.04
3.0,0.022276179085072945,0.7340402404767448,0.12206338927475378,-0.7269799635807924,11.470027709158114,0.06
4.0,0.03917986247764481,0.9562766303063063,0.15345009688536831,-0.941163600149197,10.782594482857304,0.08
5.0,0.06038928317130562,1.1646199303049576,0.18072481782353655,-1.1374126192728864,10.137354974049142,0.1
6.0,0.08442829023133253,1.2392428322059794,0.20540115549961702,-1.1982903832290022,-2.5913971475634865,0.12000000000000001
7.0,0.10785586790958286,1.1034850869001618,0.23094253538287088,-1.0502118054028033,-10.956630876727628,0.14
8.0,0.1276779427441453,0.8787003396064886,0.2603400771578171,-0.8141912465707409,-11.531891575651024,0.16
9.0,0.14291944694355463,0.645434905689918,0.2945392868835395,-0.5707637883779362,-11.840053510282914,0.18
10.0,0.1534555177733377,0.40816267181648724,0.33362534324226817,-0.32607598280708355,-12.00102279264657,0.19999999999999998
11.0,0.1592332324672076,0.16960383867230255,0.37757934104821184,-0.08453583168410293,-12.069041950104406,0.21999999999999997
12.0,0.16024574960087698,-0.06835332679008402,0.4263037038324667,0.1503122121412711,-12.071528018028944,0.23999999999999996
13.0,0.15651978101783484,-0.30424135705615624,0.47963571701301916,0.37541468223154845,-12.021315814118495,0.25999999999999995
14.0,0.14810936284773257,-0.5367949062097339,0.5373555657886046,0.5880313284223044,-11.923144244623659,0.27999999999999997
15.0,0.1350929686260118,-0.7648352783560425,0.5991918845737436,0.7856675058485044,-11.77690065522522,0.3
16.0,0.11757231937055773,-0.9872162497587454,0.6648265049879145,0.9660758157282245,-11.580019850674777,0.32
17.0,0.09567167164123574,-1.2028304852556766,0.7338997625658101,1.1273190498481878,-11.330955011715853,0.34
18.0,0.06953607346502817,-1.4107063388733259,0.8060176309122551,1.2679045223507799,-11.035113822329189,0.36000000000000004
19.0,0.03932666666963883,-1.6102063470020331,0.8807621963936739,1.3869673349322682,-10.710296780143539,0.38000000000000006
20.0,0.005211967712521042,-1.801230780822807,0.9577080616304733,1.484390749320029,-10.383465405437034,0.4000000000000001
21.0,-0.03264144058212482,-1.9840729054451498,1.0364442502497913,1.5606558186444686,-10.058818652074109,0.4200000000000001
22.0,-0.07371145489058559,-2.122887440297569,1.1164496000894084,1.600765737410655,-5.8137814485064965,0.4400000000000001
23.0,-0.11572668854773364,-2.0785914497116806,1.1964601063353661,1.5575953336453852,9.713265375312771,0.46000000000000013
24.0,-0.15532531243743436,-1.8812239990398647,1.2749553274248075,1.4593086512775342,10.878452931774731,0.48000000000000015
25.0,-0.19085559155462162,-1.6717557198548658,1.3514884465316745,1.3691898949861285,11.180247354615373,0.5000000000000001
26.0,-0.22216350689538666,-1.4589875183136478,1.4263069122172467,1.2911678306766174,11.371881188042215,0.5200000000000001
27.0,-0.24919676605777993,-1.24429094731136,1.4996747346688872,1.2261606576582766,11.502761204797967,0.5400000000000001
28.0,-0.27192427320816137,-1.0284139708032214,1.5718626482175952,1.174692430426229,11.589558182600625,0.5600000000000002
29.0,-0.2903275874647029,-0.8118740486673984,1.6431470241809092,1.1370709023175773,11.640146469161783,0.5800000000000002
30.0,-0.30439752650946533,-0.595079532313799,1.7138077440488453,1.1134580637885465,11.658758859788541,0.6000000000000002
31.0,-0.3141325427465219,-0.3783854994025445,1.7841262620937748,1.1039103908976151,11.647653660408656,0.6200000000000002
32.0,-0.31953797666992706,-0.16212562781945808,1.8543840200660526,1.108404333515285,11.607838451895683,0.6400000000000002
33.0,-0.32062583238627396,0.05336746889102491,1.924861161242037,1.1268523483258832,11.539465856167752,0.6600000000000003
34.0,-0.3174148936143228,0.2677485309464863,1.9958354359443977,1.159111949857082,11.4420943377947,0.6800000000000003
35.0,-0.3099310702260745,0.48065030655963153,2.0675812273209013,1.2049891457712263,11.31490495819162,0.7000000000000003
36.0,-0.2982079244324871,0.6916749275494912,2.140368495191941,1.2642356265597756,11.156635594759916,0.7200000000000003
37.0,-0.28228740021519033,0.9003822015070122,2.2144616370977435,1.3365374935122534,10.96546504215041,0.7400000000000003
38.0,-0.26222098409350486,1.1062581802817775,2.2901177039173892,1.4214837118346815,10.737271226738748,0.7600000000000003
39.0,-0.2380721176523077,1.3086214070600337,2.3675836551116025,1.5184807055424479,10.461164928736816,0.7800000000000004
40.0,-0.20993442202481977,1.5051354714292353,2.4470792837248108,1.6255654752782607,9.979791497682427,0.8000000000000004
41.0,-0.17832251834207655,1.6560368525929063,2.528479945034165,1.7098319659272314,5.59845839630823,0.8200000000000004
42.0,-0.14492727737913486,1.6834641064385234,2.6106488921925526,1.701595098139036,-2.810559030207427,0.8400000000000004
43.0,-0.11249632538095265,1.5596030464538235,2.6914032578899527,1.5670328177567638,-9.84928214741262,0.8600000000000004
44.0,-0.08330695485770707,1.359301173687617,2.7688093271945022,1.364794423020456,-10.47012614522144,0.8800000000000004
45.0,-0.058234274436571046,1.1479294425571032,2.842072321569808,1.1516374052647385,-10.829349241276327,0.9000000000000005
46.0,-0.03746672069202458,0.9287842744319196,2.9109973216210405,0.9309020944615466,-11.149089706894891,0.9200000000000005
47.0,-0.021149364960685688,0.7029059747205488,2.975439987191033,0.7038172790887577,-11.433548289949853,0.9400000000000005
48.0,-0.00940734852366728,0.47124747984621684,3.0352810514273076,0.47141719980266306,-11.682014363319498,0.9600000000000005
49.0,-0.002347315339925408,0.23470788492687886,3.090425212945065,0.23455695890120126,-11.894703988546336,0.9800000000000005
50.0,-3.897934779899639e-09,-4.3118239184106675e-06,3.140360530695456,-0.00011845634724866876,-11.500551601747647,1.0000000000000004
