node_idx,x,v,theta,omega,force,time
0.0,-1.190781053330697e-05,0.007152840827063907,0.013682840019866617,-0.0027386968547744917,10.972378184340661,0.0
1.0,0.0025041044847841152,0.24882450341417872,0.04244562802066852,-0.24036576374500213,11.202044768380219,0.02
2.0,0.00994017764960193,0.493366100503535,0.07599572748968107,-0.4804903528135157,10.965288126237798,0.04
3.0,0.022214796267272362,0.7284689591894492,0.10804363692365906,-0.7094692145479726,10.675456146841421,0.06
4.0,0.03907936309941343,0.9511235255138109,0.1364641558623907,-0.9230170688905429,10.377061981233615,0.08
5.0,0.060274382936916636,1.1616549448301876,0.16066169142842826,-1.1208692121480859,10.133384548661459,0.1
6.0,0.08355640584343671,1.1598158409208532,0.18162169154240373,-1.1067404867960535,-10.228822526236678,0.12000000000000001
7.0,0.10460893500551377,0.942441616352527,0.20602167237625021,-0.8813016060291732,-10.492244000524837,0.14
8.0,0.12107972853760826,0.7135498934432819,0.23442242751505568,-0.6444149379461868,-10.716984321535008,0.16
9.0,0.133003441492037,0.47729093970607833,0.2666044544092279,-0.40109050862270573,-10.846283042634813,0.18
10.0,0.1404556342866943,0.23909759382044918,0.30514252887276183,-0.15683832051074642,-10.914526372003008,0.19999999999999998
11.0,0.14306344302446805,0.0025082108524687426,0.349943769837367,0.08345614325997612,-10.942930232950047,0.21999999999999997
12.0,0.14083851916700058,-0.23131168961989154,0.39791991138492955,0.31660921574756606,-10.942902368522294,0.23999999999999996
13.0,0.13423109633028313,-0.4656949956457797,0.45211085463701917,0.5392485649690093,-10.919853301871454,0.25999999999999995
14.0,0.12274784775085813,-0.6970288090180684,0.5116417343296951,0.7483952381228682,-10.875779284355138,0.27999999999999997
15.0,0.10715433439207749,-0.9206158089628278,0.5747274472528185,0.9417252661932115,-10.810401910492487,0.3
16.0,0.08743348425623729,-1.1378521180141254,0.6409122544656524,1.1173038452751982,-10.722901639531072,0.32
17.0,0.06259057349832806,-1.3532276058623351,0.7110159317457493,1.2733401844003884,-10.612703469893276,0.34
18.0,0.03342284152818089,-1.5628467962441992,0.7844423598288763,1.4084405224445582,-10.482760857429446,0.36000000000000004
19.0,0.0002939408261445951,-1.7587212757659838,0.8611680118757277,1.5218367503624552,-10.341790869153405,0.38000000000000006
20.0,-0.036250674627825094,-1.9463827368530744,0.94013488058898,1.6137530582457948,-10.2063787719833,0.4000000000000001
21.0,-0.07668397423124437,-2.128437611870738,1.0237025137047489,1.684982556899833,-10.09708443745572,0.4200000000000001
22.0,-0.11949591280257282,-2.193196923659866,1.1187874772931385,1.685919766323223,2.3509290283031907,0.4400000000000001
23.0,-0.1608169045862167,-2.065489815317639,1.2175272305313132,1.6014795880107346,10.284897631873866,0.46000000000000013
24.0,-0.20040641654282476,-1.858180154854454,1.303621524372988,1.4975361045761415,10.45892158167795,0.48000000000000015
25.0,-0.23449001490324997,-1.6467310572505545,1.3837265855577021,1.405501615574517,10.568622189691514,0.5000000000000001
26.0,-0.2643361864490622,-1.4323187768382273,1.4594505044289405,1.3259632583334746,10.645312927025183,0.5200000000000001
27.0,-0.2913125156505476,-1.2194860081256291,1.5339963674335737,1.25958531615473,10.699693874014695,0.5400000000000001
28.0,-0.3133088327382904,-1.0050198119643865,1.6071987360011672,1.2069195626574916,10.736420334574346,0.5600000000000002
29.0,-0.3318620634285522,-0.7902052854257777,1.6787442498646594,1.168077297353615,10.758199897122104,0.5800000000000002
30.0,-0.3470194374551589,-0.5731015921211563,1.750343330970229,1.143353348463668,10.766255582587705,0.6000000000000002
31.0,-0.3585380985239498,-0.3548148043023912,1.8208784618877836,1.1328090576138012,10.761618948663111,0.6200000000000002
32.0,-0.3645219662324037,-0.13514052208405467,1.890775625961205,1.136288468918702,10.744438317269813,0.6400000000000002
33.0,-0.3639011435870477,0.08082847893204989,1.9608487877866658,1.1537499222840466,10.715412979981382,0.6600000000000003
34.0,-0.35579252335236955,0.2972885229388296,2.0311557536051468,1.1850931798185347,10.67395392360764,0.6800000000000003
35.0,-0.34728229313691494,0.5118517050200451,2.102484559418827,1.2301915955637268,10.620136148234627,0.7000000000000003
36.0,-0.3346246598805303,0.7306673825195454,2.1748619319502502,1.2890697200019166,10.55386726545308,0.7200000000000003
37.0,-0.31732765217865216,0.9393137304269137,2.2473873303932765,1.3612551551958907,10.47624029420461,0.7400000000000003
38.0,-0.2967100591339251,1.1454472373815137,2.3212704666802204,1.4464747749078684,10.387589656774448,0.7600000000000003
39.0,-0.27017841915642216,1.3538048625275443,2.396521950885811,1.544552824685134,10.290280615094655,0.7800000000000004
40.0,-0.246438836450956,1.556616573764766,2.473451383576496,1.6554987364025007,10.188831942081572,0.8000000000000004
41.0,-0.21576916068449015,1.7589245589761802,2.5512410511310253,1.7792303584745535,10.09248281076108,0.8200000000000004
42.0,-0.1787937502397143,1.7753358288334826,2.625221537736003,1.7598373812106558,-8.32119933275873,0.8400000000000004
43.0,-0.1403437571502688,1.589114344456696,2.702990096418857,1.5723544631611959,-10.165820890979987,0.8600000000000004
44.0,-0.10480468901005074,1.3827103178397393,2.7790896727894907,1.3629288834367714,-10.28714672694807,0.8800000000000004
45.0,-0.07230221326119489,1.1699111224621255,2.8510703205410723,1.1466772017604632,-10.418078768336628,0.9000000000000005
46.0,-0.03937066902645164,0.9494936519570837,2.9183741741063725,0.9242295831887953,-10.54702131841451,0.9200000000000005
47.0,-0.01745938705466112,0.7198754626933962,2.980493265250982,0.6963582444361719,-10.667170109239379,0.9400000000000005
48.0,-0.008473466461991475,0.47389951188220325,3.037251634314577,0.46431362359994943,-10.774250792885113,0.9600000000000005
49.0,-0.002243951011808449,0.23607002967212892,3.0856892067556347,0.23032242216490545,-10.866392311724521,0.9800000000000005
50.0,1.9359410525356577e-05,0.005156858233918695,3.1210538101641805,0.0012860669597149202,-10.70281050416639,1.0000000000000004
