node_idx,x,v,theta,omega,force,time
0.0,-2.9508774050851064e-05,0.013051957895260825,0.019516127261718193,-0.006053266833190182,10.583142853659204,0.0
1.0,0.002540078718158563,0.2502181671463738,0.04649895089900908,-0.2380993265121096,10.720751263179212,0.02
2.0,0.009970110533577282,0.49087518964322335,0.07658972641219769,-0.4733343306415346,10.578869869552957,0.04
3.0,0.022223474008111414,0.7243785247142118,0.10594352826267858,-0.7000655496026446,10.405105265415596,0.06
4.0,0.039074743218743914,0.9466873179151901,0.13224835096794685,-0.9131210590175782,10.226291460052582,0.08
5.0,0.060262864542312534,1.1568747175721248,0.15430019073331996,-1.1110952479739526,10.08052224675611,0.1
6.0,0.08351659445598918,1.1537520325422488,0.1727535355897849,-1.0963506783720176,-10.172930347201643,0.12000000000000001
7.0,0.1045311998510202,0.9370520235932248,0.19446801100549,-0.8705248906914098,-10.296767558333487,0.14
8.0,0.12105302181476946,0.7096254098685761,0.22090164498776882,-0.6343981691711668,-10.431079669518521,0.16
9.0,0.13299719880539154,0.4751333323584966,0.2522529465045066,-0.39199599077540326,-10.508494814109355,0.18
10.0,0.14031533686735295,0.23808823311120836,0.28943872770306633,-0.14846670956670655,-10.549360664551152,0.19999999999999998
11.0,0.142890447797552,0.0015924575749782714,0.332363489427593,0.09153624078869604,-10.566365954009147,0.21999999999999997
12.0,0.14074487485810577,-0.23328378678909603,0.38024351975958265,0.32439914628722016,-10.56633416985554,0.23999999999999996
13.0,0.13399981825514537,-0.46664586503906597,0.43356331268069037,0.5468927823478609,-10.552522346431546,0.25999999999999995
14.0,0.122661639621087,-0.6965589829618317,0.4920273209843791,0.7560121224808617,-10.526096785702162,0.27999999999999997
15.0,0.10696314239271823,-0.9207540958170976,0.554697866936689,0.949315600031516,-10.48688397035822,0.3
16.0,0.08688723685017226,-1.1394119308334734,0.6211014115449273,1.1248390123793701,-10.434419141643758,0.32
17.0,0.06218888016932078,-1.3534138345215188,0.6913088222805065,1.2808679352389998,-10.368365714394873,0.34
18.0,0.033111463480850714,-1.5605329815981681,0.7651429099039835,1.4160713485449619,-10.2904796726981,0.36000000000000004
19.0,4.9689829356348156e-05,-1.757791745510421,0.8424052534879051,1.5297980021259292,-10.205992881209703,0.38000000000000006
20.0,-0.036684544042304035,-1.9465075571168755,0.9235701689452235,1.6222865709497014,-10.124936606866221,0.4000000000000001
21.0,-0.07706807861349038,-2.128913442155946,1.012354629738001,1.6941851073166792,-10.059846594488322,0.4200000000000001
22.0,-0.1196966381138965,-2.181439705181885,1.1177002568196048,1.6901951304656122,3.4703320229780723,0.4400000000000001
23.0,-0.1613702421295112,-2.0440588519092238,1.2208727618720836,1.6000772560379708,10.171630810036813,0.46000000000000013
24.0,-0.1999031815888308,-1.8468327487294471,1.3111127768942095,1.4955854765724585,10.275498022393812,0.48000000000000015
25.0,-0.23404021381554863,-1.6320329489310412,1.393470047565299,1.403272420026441,10.34118725655703,0.5000000000000001
26.0,-0.2639906597306668,-1.4218560033171972,1.4713313941120845,1.3235311063828852,10.387196194732418,0.5200000000000001
27.0,-0.29073055329832226,-1.19170950272344,1.5467881502710659,1.2568770876206803,10.419819518898219,0.5400000000000001
28.0,-0.31273195744120835,-0.9888661460926911,1.6206885171188266,1.2037948167853447,10.441854005130836,0.5600000000000002
29.0,-0.3313037278004194,-0.7772358218424142,1.6932158123193453,1.1645551849465994,10.45499677543269,0.5800000000000002
30.0,-0.34726744941174187,-0.5656863916349902,1.7649961842587418,1.1393501958037495,10.459925670003802,0.6000000000000002
31.0,-0.3570778949050599,-0.3416460164141021,1.8357939604841822,1.1282073774103674,10.457237762703057,0.6200000000000002
32.0,-0.36358066562171976,-0.1295914645786739,1.9061577905092664,1.1310689686878996,10.447012063889805,0.6400000000000002
33.0,-0.35868287088797296,0.10115458254762581,1.976318439979069,1.147856770894695,10.429718023463876,0.6600000000000003
34.0,-0.3528347624959537,0.3242522420159677,2.046603909169098,1.1784287157863806,10.404933967528985,0.6800000000000003
35.0,-0.34273598644810405,0.5367666590837908,2.1175157081249165,1.2227381733279725,10.37275928039321,0.7000000000000003
36.0,-0.327593554253,0.7580990496191099,2.1891390522840886,1.2806675420280664,10.333178004492098,0.7200000000000003
37.0,-0.3087845187546305,0.975969069933922,2.2611474809437535,1.3519041107053271,10.286702542460642,0.7400000000000003
38.0,-0.28882361405921764,1.1708289050527707,2.3339739405610898,1.4361701250150811,10.233701285991526,0.7600000000000003
39.0,-0.26159798340205087,1.3911323353213902,2.408017977547382,1.5333367281644308,10.175613344487076,0.7800000000000004
40.0,-0.23164995871509753,1.5856441458322996,2.483017278048299,1.6434035540665866,10.115225915833193,0.8000000000000004
41.0,-0.20127284704091472,1.7944567102917102,2.5579653172709556,1.7664509052062034,10.058920697297976,0.8200000000000004
42.0,-0.1690722706737088,1.824407542783899,2.6289975604213454,1.7510364546010129,-7.7038124221798,0.8400000000000004
43.0,-0.12456823358313532,1.6388493678104172,2.7051662653431565,1.567417939607556,-10.101710202206895,0.8600000000000004
44.0,-0.0947635690084509,1.4285651166055107,2.781115503736805,1.3572575351169212,-10.17307358474615,0.8800000000000004
45.0,-0.05276962716319145,1.2249546868635315,2.8528078191927397,1.1405385483586092,-10.251219462818582,0.9000000000000005
46.0,-0.021778254446613445,0.969886146617008,2.9198495829951776,0.9179824331422498,-10.328389871324644,0.9200000000000005
47.0,-0.0021639213209022103,0.7561228315781949,2.9828737867840935,0.690759822460956,-10.400410768110037,0.9400000000000005
48.0,-0.005403555347864535,0.48246705965735087,3.0354306338481347,0.46011426163311125,-10.464621541515688,0.9600000000000005
49.0,-0.0015976369229455327,0.23992545814251953,3.0810354060828935,0.22899153186468504,-10.51971858764592,0.9800000000000005
50.0,0.0001769098017830356,0.010045248797698221,3.1158966212539116,0.0034802543464655072,-10.421891809244025,1.0000000000000004
