node_idx,x,v,theta,omega,force,time
0.0,-2.7656075551787964e-05,0.012474338094666209,0.01887474764420715,-0.005736511866981545,10.6157780491905,0.0
1.0,0.0025356585966043923,0.25005392874504867,0.04592578546087007,-0.23827783520191528,10.761073756198858,0.02
2.0,0.009965776396688546,0.4911230210467279,0.07631701350841061,-0.47399152079814416,10.611254460339072,0.04
3.0,0.022221408878030285,0.7248219954775896,0.105955324932427,-0.700956002748908,10.427780322155046,0.06
4.0,0.03907414846910188,0.9471912528450662,0.13250258632223344,-0.9140578751526119,10.238980332027278,0.08
5.0,0.06026313243783931,1.15742790246195,0.1547987090579872,-1.1120087527390354,10.0850771055575,0.1
6.0,0.08351886326291617,1.1543379629532295,0.1735180189593608,-1.0972281620997464,-10.182313475130409,0.12000000000000001
7.0,0.1045341988002828,0.9375257112423252,0.19550468487988687,-0.8713315960590247,-10.313282541970768,0.14
8.0,0.12105078334966259,0.7099330656231021,0.2221467036491158,-0.6350865856716463,-10.455095279446345,0.16
9.0,0.1329922994396361,0.47525527271684137,0.2536281804679984,-0.3925420378714233,-10.536831448212332,0.18
10.0,0.14031627582593914,0.23808575032160334,0.2909649937091059,-0.14888995766965238,-10.579977797211358,0.19999999999999998
11.0,0.14289148520963946,0.0015680130702111208,0.3340521396290511,0.09119284340640085,-10.597931369658568,0.21999999999999997
12.0,0.14074071461866622,-0.2332674033530731,0.38199667700253664,0.32412152791208004,-10.597895572133252,0.23999999999999996
13.0,0.1339986272194114,-0.466710510235452,0.43540453882385766,0.5466696414852639,-10.583310308732845,0.25999999999999995
14.0,0.12265211757803897,-0.6967274953031731,0.49396844883189917,0.7558263240891641,-10.555408449310871,0.27999999999999997
15.0,0.1069609102292724,-0.9208886681377848,0.5566892915154333,0.9491589129423474,-10.514005353221089,0.3
16.0,0.08690512392977316,-1.1394738980268626,0.6230908188022185,1.1247098297481315,-10.458608408808105,0.32
17.0,0.06219917022637353,-1.3535878943896142,0.6932876824248438,1.2807576953987276,-10.388863640465674,0.34
18.0,0.033109215390010244,-1.5608740007358546,0.7670900021265603,1.4159610426472244,-10.30662756428929,0.36000000000000004
19.0,4.0387423599797286e-05,-1.7580652864372786,0.8442752747935932,1.529655089643996,-10.21742293038577,0.38000000000000006
20.0,-0.036686221394020904,-1.9466823783330913,0.9251878819878019,1.6220759914267313,-10.131839882444147,0.4000000000000001
21.0,-0.07707237238741714,-2.1290713147301163,1.0134023328942847,1.6939068684055842,-10.063116993830718,0.4200000000000001
22.0,-0.1197014136476491,-2.181656236082693,1.117838519457494,1.6899756033153708,3.469889284381393,0.4400000000000001
23.0,-0.1613564829159175,-2.0440032626962874,1.2204976672410608,1.5999801489479972,10.181289784347955,0.46000000000000013
24.0,-0.19991812420896615,-1.8479164135454194,1.310320921362539,1.495532831396909,10.29095137232178,0.48000000000000015
25.0,-0.23403693210273702,-1.6317666598299692,1.3923940230646348,1.4032302349142602,10.360299962150547,0.5000000000000001
26.0,-0.2639193868594611,-1.4231374441268323,1.4700585427611856,1.3234910590406674,10.408864907207096,0.5200000000000001
27.0,-0.2907561141524422,-1.1901433019901477,1.545383502667068,1.2568452655406475,10.443307111630975,0.5400000000000001
28.0,-0.3126920621225523,-0.9894833075991926,1.6191946892599969,1.20378229353799,10.466573940779151,0.5600000000000002
29.0,-0.3312067782395063,-0.7772438098510707,1.6916297788125072,1.1645613462029312,10.480436700134423,0.5800000000000002
30.0,-0.3473752370356761,-0.5664760483553754,1.7633803227175815,1.1393818374252596,10.485624296288135,0.6000000000000002
31.0,-0.3570005670338974,-0.34093406638819235,1.8341087101333795,1.1282689229579603,10.482775797275476,0.6200000000000002
32.0,-0.36399177164207935,-0.1307408905058824,1.904437904303595,1.1311622726476953,10.471964617615157,0.6400000000000002
33.0,-0.35846193603479987,0.10158493881847858,1.974572299768024,1.147985495299356,10.453687352230798,0.6600000000000003
34.0,-0.35283362467626506,0.3248498928225902,2.0448375841327837,1.178593636743772,10.427518058476108,0.6800000000000003
35.0,-0.34277756648083124,0.536223835510053,2.1157716436186016,1.2229426855594345,10.393536013243516,0.7000000000000003
36.0,-0.3275547274811679,0.7582723670360082,2.1874603746686097,1.280917062364683,10.351729764530821,0.7200000000000003
37.0,-0.30860824075487286,0.9773484080892374,2.259522894707352,1.3521978815793994,10.302663312222487,0.7400000000000003
38.0,-0.2890109632556543,1.1692853180492273,2.3324180576529967,1.4364988601171598,10.246690583929873,0.7600000000000003
39.0,-0.2615155724836769,1.3927181200125374,2.406588797764872,1.5336917441410147,10.1853498881335,0.7800000000000004
40.0,-0.23144574257840067,1.5847954821664587,2.4817771261024513,1.64377028979875,10.121589205080737,0.8000000000000004
41.0,-0.201220943587858,1.794825368231535,2.5569897202695904,1.7668175019649814,10.062128124888229,0.8200000000000004
42.0,-0.16989459616922006,1.8254685132992878,2.6282745118444946,1.751484511011738,-7.703944303635766,0.8400000000000004
43.0,-0.12389313564260675,1.6387969844701848,2.7046826056408606,1.5679866860247602,-10.10745742794072,0.8600000000000004
44.0,-0.09573771615513041,1.4279590350812248,2.78083301916283,1.3578968371760631,-10.182813758747093,0.8800000000000004
45.0,-0.05238043872835461,1.227910400840304,2.852571961812555,1.1412010121032528,-10.265299230413676,0.9000000000000005
46.0,-0.021434033216082424,0.9672210138956876,2.9196308511297717,0.9186335017951796,-10.346774547864442,0.9200000000000005
47.0,-0.0011126554614683379,0.759676678723488,2.9831436112317116,0.6913566574766444,-10.422806252118834,0.9400000000000005
48.0,-0.006138085157181143,0.4805579213197104,3.035574905269811,0.4605291652600194,-10.490585107860857,0.9600000000000005
49.0,-0.0017299695009620824,0.2393320047286895,3.081478201559011,0.22910646872947077,-10.548787380648807,0.9800000000000005
50.0,0.00014976679655727345,0.00952345280824962,3.116327726938934,0.0032632354530233282,-10.44550108726226,1.0000000000000004
