node_idx,x,v,theta,omega,force,time
0.0,-6.97915912595896e-10,0.00017491822626554182,0.004488754153108967,0.0003851695931238516,11.996246441273538,0.0
1.0,0.002493800052644994,0.24928033920862147,0.04556694025636871,-0.24785554323957895,12.469518563887345,0.02
2.0,0.009971610805611417,0.498265590935185,0.0857131995177536,-0.4949360179761262,11.9824665377252,0.04
3.0,0.022307604831861554,0.7350216388922713,0.12127820039927001,-0.7271709490601923,11.386356231691085,0.06
4.0,0.03924162979475887,0.9580762663671959,0.15238857829012156,-0.9421940745432036,10.771980859392166,0.08
5.0,0.06050982928026993,1.1684740996590108,0.1793622108538419,-1.1405074659135601,10.267339375250584,0.1
6.0,0.08466721550963617,1.2470232287277103,0.2034408437006625,-1.205252154151482,-2.344958758142058,0.12000000000000001
7.0,0.10826387121635525,1.1124217821308493,0.2283120858876617,-1.0582498209592013,-11.002008439859072,0.14
8.0,0.1282483054470907,0.8858519855680936,0.25721982534423876,-0.8203548943619647,-11.467665940584965,0.16
9.0,0.14362480623977592,0.6516931881769151,0.29097478411680394,-0.5758674359252485,-11.734550997399731,0.18
10.0,0.1542802955717035,0.41379553728256696,0.3296433888121718,-0.33032698483832307,-11.875320351406314,0.19999999999999998
11.0,0.1601658212264884,0.17473272824831196,0.37320306056461977,-0.08800079193429967,-11.93400007308809,0.21999999999999997
12.0,0.16127652332326597,-0.06366765573387433,0.4215568503111834,0.14762144730343288,-11.934079038028003,0.23999999999999996
13.0,0.1576399418113477,-0.2999707096190184,0.47454590428659194,0.37351154182558616,-11.886708096810409,0.25999999999999995
14.0,0.14931047689091242,-0.5329333394966748,0.5319564643119071,0.5869411112839925,-11.795989862174725,0.27999999999999997
15.0,0.13636656393225952,-0.7613938110683832,0.5935249105154866,0.7854203667475675,-11.661773139169897,0.3
16.0,0.11890952869258052,-0.9842246082697665,0.6589413747152775,0.9667035799249944,-11.481829102279226,0.32
17.0,0.09706282477315878,-1.2003415809371707,0.7278536930508813,1.1288555970392704,-11.255121630060179,0.34
18.0,0.07096998919721369,-1.4088098014153505,0.7998724026596968,1.2703907651755957,-10.987552976869713,0.36000000000000004
19.0,0.040789757916405225,-1.6090592481849737,0.8745794313277306,1.3904644969765458,-10.69774907670089,0.38000000000000006
20.0,0.006685936042091595,-1.801153444203179,0.9515452367441555,1.4890247024436833,-10.41811267484436,0.4000000000000001
21.0,-0.03118709079989434,-1.9859738373915148,1.0303720211596052,1.5668110274167302,-10.187659756409834,0.4200000000000001
22.0,-0.07248221705725119,-2.1433333557680734,1.111124390870269,1.6155046301758527,-7.677918358086898,0.4400000000000001
23.0,-0.11499563667335884,-2.107771307459372,1.1949372102017266,1.5765157738754225,10.578443812969118,0.46000000000000013
24.0,-0.15508191692342138,-1.9006042467122488,1.2740537012234345,1.473952240084778,10.939211104805421,0.48000000000000015
25.0,-0.19098056537705319,-1.6890274557810754,1.3509840943937341,1.38246997384526,11.165386696893455,0.5000000000000001
26.0,-0.22262186460916775,-1.4748835738127575,1.426135585273129,1.3033655096290535,11.3236078272896,0.5200000000000001
27.0,-0.24996378640308872,-1.259108219389408,1.4997865357964928,1.2373971189684736,11.435507285417431,0.5400000000000001
28.0,-0.2729798655019951,-1.0423073589986558,1.5722127706746756,1.1850425442611645,11.510943192838367,0.5600000000000002
29.0,-0.29165412114670636,-0.8249310650500817,1.643693440367249,1.1465925366344611,11.555295612903619,0.5800000000000002
30.0,-0.30597853915715356,-0.6073459224079106,1.7145102658064348,1.1222036928521137,11.57168613509544,0.6000000000000002
31.0,-0.31595228988664303,-0.3898774565985617,1.7849458125319715,1.1119334470707454,11.561868245797019,0.6200000000000002
32.0,-0.3215807130290224,-0.1728329256611875,1.8552823719198637,1.1157640776516045,11.52668269636427,0.6400000000000002
33.0,-0.3228751844132374,0.043481573252127516,1.9258009536369949,1.1336189316276695,11.466361072525075,0.6600000000000003
34.0,-0.3198534659055047,0.2587509742753698,1.9967802596392148,1.1653730424740294,11.380782373814224,0.6800000000000003
35.0,-0.31253987517606935,0.47264770695370445,2.0684962349147997,1.21085983798115,11.269757067409225,0.7000000000000003
36.0,-0.3009652158688307,0.6848324188228923,2.141220927556696,1.2698758451818237,11.133378642598544,0.7200000000000003
37.0,-0.28516731318883526,0.8949642025431045,2.215222691938315,1.3421858601819674,10.972466377377211,0.7400000000000003
38.0,-0.2651903049923837,1.102716375844593,2.290765111345939,1.4275322737526406,10.789131552694666,0.7600000000000003
39.0,-0.24108433707201876,1.3078091360452935,2.3681068582524785,1.5256564446226832,10.587671546327437,0.7800000000000004
40.0,-0.21290464336909196,1.5100659454656036,2.4474999233785337,1.6363401839880842,10.376204798388862,0.8000000000000004
41.0,-0.18070792481120965,1.709487824310563,2.5291560565144287,1.759478751128434,10.1669680550229,0.8200000000000004
42.0,-0.14619435105216586,1.741751265359268,2.610967911600458,1.7530592595763252,-6.87308186661603,0.8400000000000004
43.0,-0.11304123535221164,1.5734010763963702,2.6920833534165522,1.5797467405650651,-10.322916215160859,0.8600000000000004
44.0,-0.08363899534721689,1.36663259641259,2.769620230468086,1.3714981356986018,-10.581301188090483,0.8800000000000004
45.0,-0.058443261086458344,1.1527620296018148,2.842899237880179,1.1558869050786875,-10.853705688318353,0.9000000000000005
46.0,-0.03759282873847194,0.9320589752936389,2.9117592403606474,0.9335776326583778,-11.120650238040229,0.9200000000000005
47.0,-0.021218657294678037,0.7050980094314111,2.976068144233627,0.705383683286989,-11.368303464955577,0.9400000000000005
48.0,-0.009438906219124413,0.47263058307403705,3.0357088343616994,0.47215587688698657,-11.588428035482979,0.9600000000000005
49.0,-0.0023557986143938445,0.23549244030069386,3.090437257275027,0.23471809549286737,-11.778566948790592,0.9800000000000005
50.0,-1.701037772304705e-08,0.00010868161264032226,3.137039465614849,-0.0003616599248808895,-11.439886850989938,1.0000000000000004
