node_idx,x,v,theta,omega,force,time
0.0,-3.358006614346651e-05,0.014318593241733334,0.020853451730736515,-0.006735018800426151,10.514736867927875,0.0
1.0,0.002550586094281248,0.2505929238668822,0.047766612082907806,-0.23769911707688157,10.636233409357693,0.02
2.0,0.009980834374805313,0.4903160883207114,0.07722328167533776,-0.4718541747814118,10.510990474523044,0.04
3.0,0.02222890519873931,0.7233509866108574,0.10593503211048168,-0.6980339500720472,10.357577859210194,0.06
4.0,0.03907645182926093,0.9454992574537558,0.13167479133802887,-0.9109613339383589,10.199695342981187,0.08
5.0,0.06026217289929332,1.155568779491773,0.15315810902056212,-1.1089767224819767,10.070974397372641,0.1
6.0,0.08351147043142494,1.152398203389415,0.17100550843018367,-1.0943249445639796,-10.153172884399737,0.12000000000000001
7.0,0.10452488084713933,0.9359517752186862,0.192108183619485,-0.8686726769565456,-10.262149474307362,0.14
8.0,0.12105698769255996,0.7089038661756448,0.21806631366446697,-0.6328155552588172,-10.380740737154202,0.16
9.0,0.1330063339424507,0.47483166635135965,0.24909987025117433,-0.3907401339360188,-10.449099495234417,0.18
10.0,0.14031407994732142,0.23807076353491824,0.28594034058554246,-0.1474956968731413,-10.48518600527071,0.19999999999999998
11.0,0.14288924685738202,0.0016386024760856003,0.32851280990338194,0.09231616792751646,-10.500204096793787,0.21999999999999997
12.0,0.14075317233810472,-0.23329362360124398,0.37622514502094545,0.3250259238118544,-10.500180573454756,0.23999999999999996
13.0,0.13400444560262445,-0.4664853532649067,0.42934750153858237,0.5473922651734099,-10.487989518460049,0.25999999999999995
14.0,0.12268074635563084,-0.6961879517459519,0.48759674745925835,0.7564233871026214,-10.464658323581688,0.27999999999999997
15.0,0.10696652964896307,-0.920439350869924,0.5501552045980977,0.9496603286275707,-10.430036456880936,0.3
16.0,0.08685175602031729,-1.1392194282615258,0.6165579119724282,1.1251231761205134,-10.383716929884427,0.32
17.0,0.062166437236264756,-1.3529870266667803,0.6867933314045936,1.2811119789972927,-10.32540007284973,0.34
18.0,0.03311591194086889,-1.559775893284313,0.7607050816995421,1.4163216826493559,-10.256632059791208,0.36000000000000004
19.0,6.923472471890814e-05,-1.7571531047401905,0.8381668173373886,1.5301327359512509,-10.182034505130366,0.38000000000000006
20.0,-0.03667798029798844,-1.9460750850451187,0.9199338163773706,1.6227864243338017,-10.110466445032708,0.4000000000000001
21.0,-0.07705795890139447,-2.1285256689802727,1.0100207940384538,1.6948379132092253,-10.05299033624918,0.4200000000000001
22.0,-0.11968796074838944,-2.1809766896610037,1.1173075449116932,1.6907080138496375,3.4702000307053242,0.4400000000000001
23.0,-0.16139429288847412,-2.043920628399488,1.2216978024226464,1.6003096891293869,10.15138539844885,0.46000000000000013
24.0,-0.199877157798987,-1.8447731161357872,1.3128886473098271,1.4957113912807267,10.243106469840951,0.48000000000000015
25.0,-0.23405722887640046,-1.632179941847363,1.3959034120959994,1.4033730320105815,10.301126418692862,0.5000000000000001
26.0,-0.2641237654584787,-1.4197066582430797,1.4742211162452756,1.3236257061020351,10.341775739916866,0.5200000000000001
27.0,-0.2907028472282719,-1.1944371585704596,1.5499816018813906,1.2569536090550297,10.370587816848635,0.5400000000000001
28.0,-0.31282453671887744,-0.987943370605093,1.6240901053979486,1.2038301364274964,10.390042889714248,0.5600000000000002
29.0,-0.3314797550881051,-0.7770083675253965,1.6968186604227806,1.1645459399857712,10.40167434432088,0.5800000000000002
30.0,-0.3470829315979979,-0.5642799021265534,1.7686857888469056,1.1392816888374322,10.406059434130833,0.6000000000000002
31.0,-0.35714010840249316,-0.34270636592217063,1.8396288062056771,1.1280694852681683,10.40370974071855,0.6200000000000002
32.0,-0.3628350497970651,-0.12757196603255797,1.9100764201804181,1.1308567091486388,10.394710927150966,0.6400000000000002
33.0,-0.3590321521778056,0.10042307669426245,1.9802978284236665,1.14756137103889,10.37947443851024,0.6600000000000003
34.0,-0.35286224075623773,0.32311727122102607,2.0506228191437796,1.1780492680385168,10.357597991489024,0.6800000000000003
35.0,-0.3426588622365798,0.5376676455894045,2.1214836233838246,1.2222665862282294,10.32921049344885,0.7000000000000003
36.0,-0.3276825849028239,0.7576192428874312,2.192965816560609,1.2800911461196465,10.294288870884511,0.7200000000000003
37.0,-0.3090914331272038,0.9735166032800029,2.2648482401618253,1.3512261174469318,10.253249734482148,0.7400000000000003
38.0,-0.2885019155628623,1.1732904676020692,2.3375072475487264,1.4354100240742922,10.206473474023822,0.7600000000000003
39.0,-0.261748572888541,1.3884493301855234,2.4112593363081385,1.5325172807817862,10.155202220946386,0.7800000000000004
40.0,-0.23205569189264452,1.586947040205208,2.4858269685275474,1.642558047900692,10.101887667746341,0.8000000000000004
41.0,-0.201258967297176,1.7936878445664322,2.560182169027706,1.7655991974910619,10.052190632738043,0.8200000000000004
42.0,-0.16758767207128067,1.822300239616771,2.630650958962094,1.7500032862854136,-7.702531835995424,0.8400000000000004
43.0,-0.12555781235018393,1.638848915596303,2.7062759596571544,1.5661113366267938,-10.089658429558366,0.8600000000000004
44.0,-0.0930443290357443,1.4292572106337709,2.7817852210206615,1.3557861926936103,-10.152662041021424,0.8800000000000004
45.0,-0.05341840902779002,1.2197724193671742,2.8533386247254717,1.139010274366176,-10.221704378506749,0.9000000000000005
46.0,-0.022664709097614824,0.9739136591353621,2.920249596543285,0.916487680801556,-10.289856289824101,0.9200000000000005
47.0,-0.0041250219690758755,0.7500288118209694,2.9823680111771087,0.6894061891255753,-10.353470638153148,0.9400000000000005
48.0,-0.0041504556380414104,0.485667075030232,3.0350130760821634,0.4591775856261148,-10.410194274316067,0.9600000000000005
49.0,-0.0012181829510861655,0.2414681688746453,3.080091610413228,0.22874205224816097,-10.458791834693857,0.9800000000000005
50.0,0.0002599558835293235,0.011259255948844984,3.1149869316355727,0.003953310885721047,-10.372404944895267,1.0000000000000004
