node_idx,x,v,theta,omega,force,time
0.0,-4.6415720907999877e-05,0.018780101517406937,0.025706469661991832,-0.00903156086656482,10.301079723690908,0.0
1.0,0.0025994843141372817,0.25198301856282007,0.05297853127230185,-0.2362178281044344,10.372304210883991,0.02
2.0,0.010035375263086746,0.4879741037127357,0.0803930973868959,-0.46622567566525813,10.299260459131128,0.04
3.0,0.022259006971882652,0.7187854585989214,0.10653181582117269,-0.6900115657427089,10.20914646630058,0.06
4.0,0.03908317090072629,0.9399545137673635,0.12974232881236375,-0.9022124338031545,10.116640165679101,0.08
5.0,0.060186832225391076,1.1430439324410389,0.14872369922087095,-1.09404384176277,9.399660004293159,0.1
6.0,0.0832223900233045,1.1328275847583364,0.1642578863943809,-1.0737066975554164,-10.090124373270275,0.12000000000000001
7.0,0.10400379397195503,0.9186118414800676,0.1838522412897937,-0.8491826076329559,-10.15402540481929,0.14
8.0,0.12028841405397757,0.6936234772213699,0.20752934951626165,-0.6149428417366227,-10.22448377686552,0.16
9.0,0.13198218227294525,0.4617947777367728,0.23703365926863923,-0.3746911959303985,-10.263853783068866,0.18
10.0,0.13908734338110132,0.22618600140557096,0.2718862238452306,-0.13305031697785624,-10.285120801955673,0.19999999999999998
11.0,0.1413123011913893,-0.01034978461715044,0.31324948810426023,0.10544419274740391,-10.293562442601829,0.21999999999999997
12.0,0.13904018497821552,-0.24552684375510936,0.3608448014822845,0.3369556277404831,-10.294040173940344,0.23999999999999996
13.0,0.13206898204904896,-0.4772884726641868,0.4131209588759204,0.5581795919761515,-10.286436182070775,0.25999999999999995
14.0,0.12040463896743824,-0.7071972903643284,0.47065485836369236,0.7661972735011859,-10.27276663262828,0.27999999999999997
15.0,0.10415703029935544,-0.9321543988663183,0.5329593108659917,0.9584407665983922,-10.252779539509968,0.3
16.0,0.08401939132238437,-1.1497855307288838,0.599338416608144,1.132976520672212,-10.225347590976389,0.32
17.0,0.059101006258744496,-1.3635897912201191,0.6699426892228569,1.2880986879967802,-10.191192759840275,0.34
18.0,0.03000934913252831,-1.5690325406534404,0.7441764378215656,1.4227011576070205,-10.151309081995507,0.36000000000000004
19.0,-0.0032236299218959424,-1.7665846530780611,0.8226612965057034,1.5363105095037775,-10.107896743413681,0.38000000000000006
20.0,-0.04048353364415443,-1.9563476392265806,0.9071185421441904,1.62912262678232,-10.066277519627592,0.4000000000000001
21.0,-0.0811629465171159,-2.1388122877641433,1.0024401408206194,1.7011602536171908,-10.031571988496491,0.4200000000000001
22.0,-0.12416524375265389,-2.185048602474297,1.1168642892722733,1.6933762475561251,4.098670947330935,0.4400000000000001
23.0,-0.1661394277801899,-2.042664689587295,1.2263169506944753,1.5990805808343742,10.088473752567134,0.46000000000000013
24.0,-0.20468677527453905,-1.839293586811462,1.3214125343278558,1.493972004562834,10.142406482535252,0.48000000000000015
25.0,-0.23898968213940558,-1.6320578260366843,1.4071986220419845,1.4015208064514377,10.176245034571684,0.5000000000000001
26.0,-0.2697587523210906,-1.4182814179479342,1.4874801604224661,1.32178336580505,10.20128778268939,0.5200000000000001
27.0,-0.29621731884663477,-1.200136544831209,1.564545307817605,1.2551034421630576,10.217198743742056,0.5400000000000001
28.0,-0.31946483205920234,-0.9879032954167326,1.6396741405043795,1.2019229870674601,10.228261889085985,0.5600000000000002
29.0,-0.33831163628722366,-0.7764838524248123,1.7131169010403533,1.1625163991103267,10.235835428304885,0.5800000000000002
30.0,-0.3527568320812143,-0.5611797015736835,1.7853823573137184,1.1370743993286871,10.238519540274359,0.6000000000000002
31.0,-0.3624997425153195,-0.3432197146939397,1.8567476258002347,1.1256454043945832,10.236532853858241,0.6200000000000002
32.0,-0.366446081377328,-0.1253242465628595,1.927549385378361,1.1281748762404578,10.231520582083458,0.6400000000000002
33.0,-0.3654051934139166,0.09852658727346636,1.9980078218252093,1.1446044749860853,10.222544501511846,0.6600000000000003
34.0,-0.3591981770641944,0.318733129320744,2.0683465630427316,1.1748075444861668,10.209765857644488,0.6800000000000003
35.0,-0.3497925822403414,0.537437966445024,2.13905502405544,1.2187362640260087,10.193320604966566,0.7000000000000003
36.0,-0.33438479508038144,0.7540759416473438,2.2098888918593724,1.2762236946972443,10.173083124185961,0.7200000000000003
37.0,-0.31691401458032736,0.9683642550813155,2.281242117391836,1.3470422546578134,10.148789533308523,0.7400000000000003
38.0,-0.2945193644277327,1.17951422715803,2.3528752134558686,1.4310192909851662,10.125650174072346,0.7600000000000003
39.0,-0.2676044931668044,1.385434479358978,2.42519563699872,1.5279910061539046,10.091442004663556,0.7800000000000004
40.0,-0.23852920922610463,1.592473804487669,2.4977974497019626,1.637951695964255,10.06035804919856,0.8000000000000004
41.0,-0.20642769294919067,1.7949661991441974,2.569797925631631,1.7609215086524546,10.031167880153582,0.8200000000000004
42.0,-0.17071294481241048,1.8230152320817796,2.6380225940253923,1.745009140800713,-7.635751978990642,0.8400000000000004
43.0,-0.13104379287943194,1.6380808443095891,2.7117497959011625,1.5603752750283482,-10.052395587453011,0.8600000000000004
44.0,-0.09465613920637858,1.4287600749722005,2.7854241295242,1.3492901890463793,-10.088970285392296,0.8800000000000004
45.0,-0.058599019990260924,1.214229719408971,2.8559621433351547,1.1322638543551289,-10.129521469794437,0.9000000000000005
46.0,-0.029229595185251263,0.9821978933675362,2.921379800563748,0.9100135534169929,-10.16953426791751,0.9200000000000005
47.0,-0.011761607519011067,0.7434295285682377,2.980957877806934,0.6837465540045221,-10.206875865436666,0.9400000000000005
48.0,-0.0024038861488895583,0.4914147180057404,3.0329287517826224,0.45534213040768523,-10.240201567406228,0.9600000000000005
49.0,0.0004295542155048078,0.24799522973289628,3.076684225331968,0.22771099151497012,-10.2685166792189,0.9800000000000005
50.0,0.0008745553950543425,0.016473822104969754,3.1120502839906674,0.005530950830786776,-10.217852082458666,1.0000000000000004
