node_idx,x,v,theta,omega,force,time
0.0,-3.7060073197209633e-05,0.015414865663345583,0.021853044900528456,-0.007307409167781198,10.458084861399831,0.0
1.0,0.0025604779947900115,0.25090782888533186,0.04875723214494947,-0.2372936639312516,10.566321139761369,0.02
2.0,0.009990746513811833,0.48976604030509796,0.07767140288653376,-0.4704396803175928,10.455198137225974,0.04
3.0,0.02223282677189614,0.7223317608494642,0.105783879938379,-0.6960629379123819,10.318217819495915,0.06
4.0,0.03907518060056079,0.9442932707880822,0.13097185482741466,-0.9088199685152515,10.177658321577415,0.08
5.0,0.060231301833147136,1.1517067557518528,0.15192268554958607,-1.1043371659236616,9.808992863586445,0.1
6.0,0.08339898940789632,1.1459831880365328,0.16927488348153152,-1.0872703514994722,-10.13645180044959,0.12000000000000001
7.0,0.10430873466815026,0.9297766875649688,0.18990617253524125,-0.8618046614509919,-10.233478510404673,0.14
8.0,0.12074576679882443,0.7030739907308798,0.21550693100845122,-0.6262230332128121,-10.340550020480288,0.16
9.0,0.13259620639317837,0.46938325349611176,0.24630779900420502,-0.3845011102100536,-10.400333169688674,0.18
10.0,0.13979444354309728,0.23289935439280715,0.28290803815574994,-0.1416126972673197,-10.432607166442459,0.19999999999999998
11.0,0.14226756418686984,-0.003435186473507637,0.32524855191146074,0.09789300426441931,-10.44541142614228,0.21999999999999997
12.0,0.14003624716094384,-0.23835738926981961,0.37286112993843995,0.3303116937238237,-10.446091926291226,0.23999999999999996
13.0,0.1331852153053343,-0.4713777685563326,0.4258744713291298,0.552386685358597,-10.434563055950775,0.25999999999999995
14.0,0.12176975607779247,-0.700873744959035,0.4840056547108488,0.76113126011039,-10.413780918879628,0.27999999999999997
15.0,0.10594193738007716,-0.9251190181551285,0.5465258148517144,0.9540862681461512,-10.383409435742008,0.3
16.0,0.08569863355092337,-1.1439314802592402,0.6129801174142732,1.129256081396614,-10.34172610884358,0.32
17.0,0.060922867798641984,-1.357463299555707,0.683297361362373,1.2849519580669895,-10.289815758707107,0.34
18.0,0.031797222006118384,-1.563963306947225,0.7573351074655665,1.4199074376290295,-10.229211086144373,0.36000000000000004
19.0,-0.00133360756982097,-1.7613974442854166,0.8350486085178725,1.5335394294633966,-10.163253657575234,0.38000000000000006
20.0,-0.03818563652182527,-1.9504819388220747,0.9174347263049285,1.6260879653863698,-10.100016707647267,0.4000000000000001
21.0,-0.0786615655272339,-2.1329702724478325,1.0087467483337764,1.6980009281777764,-10.047311178007497,0.4200000000000001
22.0,-0.1213604687556159,-2.182140702391973,1.1177731478456256,1.6921301084352423,3.8197372868615203,0.4400000000000001
23.0,-0.1630894941882855,-2.0420084373829788,1.2232125911343168,1.6000218383091598,10.135080812148395,0.46000000000000013
24.0,-0.20151121697794336,-1.8416450550258607,1.3152415550713867,1.49535036673787,10.216972064665816,0.48000000000000015
25.0,-0.23569834174275078,-1.6303030588684202,1.398836676007029,1.4030263154339806,10.268307124606292,0.5000000000000001
26.0,-0.2658031173818871,-1.4166079096800093,1.477552934491123,1.3233172141690945,10.306262357331187,0.5200000000000001
27.0,-0.2922451433386895,-1.1945593093009788,1.5535657064203163,1.2566781143326704,10.330370224329593,0.5400000000000001
28.0,-0.31439657096444923,-0.9856871963424161,1.6278378322721265,1.2035718789618521,10.347139087849454,0.5600000000000002
29.0,-0.3330511199994827,-0.7747809623537796,1.7007150836673903,1.1642996890185833,10.358555170492641,0.5800000000000002
30.0,-0.34835725204344214,-0.561405308193822,1.7726524413645166,1.1390371963460442,10.362510340178385,0.6000000000000002
31.0,-0.3584618354064332,-0.3412244331474998,1.8436907447581334,1.1278162803040774,10.359381170565058,0.6200000000000002
32.0,-0.3636165612387928,-0.12437204595030571,1.9141963196695313,1.1305883453908956,10.351642440910537,0.6400000000000002
33.0,-0.3605000905143125,0.1017989517141582,1.9844492727697265,1.147269965013016,10.337862397678421,0.6600000000000003
34.0,-0.35416162160178843,0.3243038512160912,2.05478053927948,1.1777332555144857,10.318397532819441,0.6800000000000003
35.0,-0.3438221209786834,0.5400904816901458,2.125569712848012,1.2219187357463983,10.293322325546994,0.7000000000000003
36.0,-0.3288912892712546,0.7588747015206522,2.196907508527373,1.279702201409588,10.262488092024588,0.7200000000000003
37.0,-0.3103796992217078,0.9737432269219769,2.26865125919865,1.350799491423034,10.22554722918452,0.7400000000000003
38.0,-0.2892008609383829,1.1768354710086075,2.3411282781810683,1.4350071116799286,10.190354544138078,0.7600000000000003
39.0,-0.26266178262823153,1.3890904454718753,2.4145918459004108,1.5321627914218119,10.138295925289583,0.7800000000000004
40.0,-0.23306880199177993,1.589822597408321,2.4887478781735703,1.6422369748473622,10.090840768107022,0.8000000000000004
41.0,-0.20173067296592181,1.7950025791659245,2.5625593359698233,1.7653246393013786,10.046611442617305,0.8200000000000004
42.0,-0.16701137779317254,1.8222312210162097,2.63251051348219,1.7492721788538634,-7.737908227174786,0.8400000000000004
43.0,-0.1263894538722732,1.6400005564035196,2.707628276105773,1.5648005059772034,-10.080169567323024,0.8600000000000004
44.0,-0.0920790615156613,1.4302456227616165,2.782728480180044,1.354318589869009,-10.135764412101599,0.8800000000000004
45.0,-0.05390515952754984,1.2169286992447401,2.8540653930592867,1.1375010340560252,-10.197259904870357,0.9000000000000005
46.0,-0.02366072086885555,0.9766195222267959,2.9207258344602636,0.9150371481601078,-10.25794686257798,0.9200000000000005
47.0,-0.005622447149177391,0.7464588001612953,2.9821012649809373,0.688124939384224,-10.314599404754555,0.9400000000000005
48.0,-0.0033823864159397026,0.48764658766005536,3.034621702637018,0.4582987229404891,-10.365114322542002,0.9600000000000005
49.0,-0.0008279049116906523,0.2429641020143667,3.0792788168245924,0.22850758114578198,-10.408337300157028,0.9800000000000005
50.0,0.0003636596130053277,0.01240146188725423,3.114240205294767,0.004357972451065513,-10.331422020601469,1.0000000000000004
