node_idx,x,v,theta,omega,force,time
0.0,-4.809097629183196e-06,0.004058386931916238,0.013656172021744411,-0.0010209135163610334,11.273886641061855,0.0
1.0,0.0024980662492583515,0.2489721733162347,0.045645606772802085,-0.2433489550172298,11.575936178057251,0.02
2.0,0.009957793010666828,0.49583465337215504,0.08183787102885985,-0.487172552256947,11.265074009441564,0.04
3.0,0.022269102974570045,0.7319161141810885,0.11558722015619698,-0.7181784923241733,10.884539290460502,0.06
4.0,0.03917495250381993,0.9548556819805841,0.14532093461994125,-0.9327832176137012,10.492408930748333,0.08
5.0,0.06041276682924352,1.1654295570823046,0.17084322871545665,-1.131145836880775,10.169873865862433,0.1
6.0,0.08423782129774778,1.213705826041851,0.19293734163683854,-1.1661504065714643,-5.336707955650971,0.12000000000000001
7.0,0.10683367078794222,1.0478233797672745,0.21725160514353425,-0.9897284883103562,-10.640039571087266,0.14
8.0,0.1253604377434032,0.8157543974710294,0.24487604067585783,-0.7525891170800156,-10.937245895300665,0.16
9.0,0.13935897813560175,0.5824282312839697,0.27832332686020766,-0.5090497276428814,-11.107638021232642,0.18
10.0,0.14880493322873944,0.34398400722814143,0.31737754891489806,-0.26454990582247695,-11.197562356233766,0.19999999999999998
11.0,0.15352565093065013,0.10751137768541455,0.3604812037843633,-0.023610111213034125,-11.235038886485352,0.21999999999999997
12.0,0.15323538327575803,-0.1279109663497894,0.40718934286660596,0.21088801787901207,-11.235075982838199,0.23999999999999996
13.0,0.14903557279554516,-0.36376531429382514,0.4593229110034134,0.43549622939703675,-11.204862025414075,0.25999999999999995
14.0,0.13966248115899407,-0.5952710191559589,0.5163404123422842,0.6475009596767458,-11.146977345398184,0.27999999999999997
15.0,0.1254693015642448,-0.8231150203053681,0.577922286473891,0.8444379757428695,-11.061312654924505,0.3
16.0,0.10776468917944539,-1.0417376936299514,0.6434107368388872,1.0239605188165706,-10.94648904777504,0.32
17.0,0.08443053407518726,-1.2548163562630865,0.7121344053162179,1.1842807160059883,-10.801751307175081,0.34
18.0,0.057877891066350814,-1.4669830139132922,0.7848799975707861,1.323788188060253,-10.630975051191651,0.36000000000000004
19.0,0.026971940784692065,-1.663912024175808,0.8602447675826781,1.4418296939422381,-10.445951331362515,0.38000000000000006
20.0,-0.007996907702825401,-1.853076601463485,0.9384195339524338,1.5383157126230094,-10.267361284092425,0.4000000000000001
21.0,-0.0477436316299129,-2.037769606783074,1.018726915610836,1.6141401553053185,-10.120056149369793,0.4200000000000001
22.0,-0.08942457025591359,-2.1698733763633826,1.1065319025842015,1.6472440005508546,-4.501817079108241,0.4400000000000001
23.0,-0.1316613859795874,-2.1033908611304404,1.2038382872615414,1.5930434281780115,10.368642856005534,0.46000000000000013
24.0,-0.17213795762356207,-1.8985005735568246,1.2875219070257644,1.4894882075406777,10.599043822138327,0.48000000000000015
25.0,-0.20646418904949337,-1.6838720811515209,1.367135434580583,1.3974791968348113,10.743370133505513,0.5000000000000001
26.0,-0.23809911733737646,-1.4674357356148129,1.442176179584313,1.317810171360463,10.844554898914922,0.5200000000000001
27.0,-0.26544826850798575,-1.2561175394060844,1.5171991100895301,1.251365146641838,10.916034008276064,0.5400000000000001
28.0,-0.28765107935620754,-1.0376593253877904,1.590594243122396,1.1986440809687742,10.964253675495922,0.5600000000000002
29.0,-0.3053652840351652,-0.8216958784310707,1.6614717687571225,1.1596891588649985,10.99272570449222,0.5800000000000002
30.0,-0.31988105838491676,-0.6055914122066938,1.7334559287704545,1.134825497764587,11.003232384217316,0.6000000000000002
31.0,-0.33236718859131054,-0.39004117624982987,1.8037151000665053,1.1240674777140602,10.997053163059824,0.6200000000000002
32.0,-0.33912965537623585,-0.17256288522411686,1.8747453165837125,1.1275363198466528,10.974662597436831,0.6400000000000002
33.0,-0.33928763671377055,0.04647971176176788,1.9445986339675545,1.1449021589458461,10.936223260584788,0.6600000000000003
34.0,-0.33406828723503934,0.26526731127838693,2.0149314246201144,1.1760607784331407,10.881573451120776,0.6800000000000003
35.0,-0.32785157546255794,0.4816943021950996,2.0873529823936394,1.2210820826638362,10.810859744888496,0.7000000000000003
36.0,-0.31537160035666834,0.6979334372119272,2.1597465670350697,1.2797864586027852,10.723650031180938,0.7200000000000003
37.0,-0.297422127647487,0.9122396999869474,2.233178798692992,1.3518205243510903,10.620990713761941,0.7400000000000003
38.0,-0.2787318009648593,1.120686705206276,2.308301525751897,1.4369803115420223,10.504035071354323,0.7600000000000003
39.0,-0.2520851536105411,1.3285918490039526,2.384817474971583,1.5350532537977324,10.375599874871721,0.7800000000000004
40.0,-0.22743059875752328,1.5299513185215063,2.462817190658409,1.6458960046817848,10.24066207960819,0.8000000000000004
41.0,-0.19609447608546388,1.7333834469195704,2.541931641382564,1.7692178760064572,10.106190809160022,0.8200000000000004
42.0,-0.1606306893408471,1.757874281160239,2.6181397483469553,1.7559247353937988,-7.636199148150972,0.8400000000000004
43.0,-0.12437112087395992,1.5757266060586972,2.6973970065289787,1.5752763338850313,-10.205562915720861,0.8600000000000004
44.0,-0.09283185969653321,1.371055011146172,2.774388816141568,1.366548483956633,-10.37013931788703,0.8800000000000004
45.0,-0.06524659031718905,1.1542648272342637,2.8470118223823624,1.1506275281850904,-10.544516707341405,0.9000000000000005
46.0,-0.03916822241902537,0.9353202320309439,2.9150430125697477,0.9281836988695064,-10.714839527171824,0.9200000000000005
47.0,-0.020613666972186452,0.7088145117489812,2.9788112058631544,0.700088242165366,-10.872941255122392,0.9400000000000005
48.0,-0.009372515507776449,0.47162756875842743,3.036793359881128,0.4673466932194762,-11.013574633723726,0.9600000000000005
49.0,-0.002356072033933875,0.23545020785542797,3.087594044871238,0.2316607308374143,-11.134967057099166,0.9800000000000005
50.0,3.5648040172496285e-06,0.0028674299861448783,3.1249539422411745,0.0002347239144375466,-10.918761104219435,1.0000000000000004
