node_idx,x,v,theta,omega,force,time
0.0,-4.1038676274034286e-05,0.016725925855624525,0.02314601256572935,-0.007975200486515658,10.394576191220448,0.0
1.0,0.0025740596555949334,0.2513277839372738,0.05014346023889752,-0.23684297511261712,10.487834158502084,0.02
2.0,0.01000594680384793,0.4891292000011088,0.078463676863894,-0.46878498444941596,10.392120279661723,0.04
3.0,0.02224170169266436,0.7210877159502226,0.1058550221313522,-0.6937230233899353,10.274099343853857,0.06
4.0,0.03907852814373768,0.9427952016079788,0.13035064901786125,-0.9062713973570551,10.152979870980866,0.08
5.0,0.06022803214934,1.1498073204871302,0.15060395751902073,-1.101561024829407,9.774666573398388,0.1
6.0,0.08338333572009479,1.1438593191776014,0.16726151796006053,-1.0843863852563291,-10.117727061660164,0.12000000000000001
7.0,0.10428177385975707,0.927960965060692,0.1872165031324556,-0.8591667215744571,-10.201347103299133,0.14
8.0,0.12071488181869565,0.7016515951313729,0.21228665839678695,-0.6239291662606945,-10.293594300757285,0.16
9.0,0.1325617607775174,0.4684775252777913,0.24265839900185102,-0.3826192539665165,-10.34511880071203,0.18
10.0,0.1397443140013622,0.23232248201305036,0.27885238449000577,-0.14010278715902674,-10.37294495398285,0.19999999999999998
11.0,0.14220771112870603,-0.003884875359636216,0.3208229718525588,0.09912374943351167,-10.383984139495125,0.21999999999999997
12.0,0.13997324149476403,-0.2387825281384401,0.3681936202969383,0.3313210282869694,-10.384601335583945,0.23999999999999996
13.0,0.13311029692645904,-0.47160931892586516,0.42098363847376624,0.553206462773618,-10.374636605569206,0.25999999999999995
14.0,0.12169960519191016,-0.7009054607171572,0.4788920292113891,0.7618069745819509,-10.356736056143676,0.27999999999999997
15.0,0.10584372124970787,-0.9251492190947644,0.5412839846629226,0.9546512291530742,-10.330567049857281,0.3
16.0,0.08556261417019302,-1.1440044931148843,0.6077339086066252,1.1297229956157655,-10.294645910505144,0.32
17.0,0.060789534762097565,-1.3573552933776123,0.6780951101252592,1.2853500306010386,-10.249921250684364,0.34
18.0,0.031680058362983404,-1.563535755073909,0.7522441740867672,1.420300692129446,-10.197699246253595,0.36000000000000004
19.0,-0.00144481224770872,-1.761021833422656,0.8302600888514141,1.5340311540395624,-10.140857467710065,0.38000000000000006
20.0,-0.03830486613263771,-1.9503019362005378,0.9134310871681507,1.6267683322571767,-10.086364013737235,0.4000000000000001
21.0,-0.07880277988677035,-2.1328677789657347,1.0062649363838065,1.6988189252248165,-10.040936769449925,0.4200000000000001
22.0,-0.12151388702072975,-2.181672089810911,1.1173226522897102,1.692597057585585,3.8544931371525726,0.4400000000000001
23.0,-0.16325534072018952,-2.0413719750020407,1.2241946119693037,1.600003352398535,10.116219675994373,0.46000000000000013
24.0,-0.20166153045128724,-1.8400433476319733,1.3173385280103744,1.4951992734922621,10.186810291372089,0.48000000000000015
25.0,-0.2358991049666897,-1.6298944660819579,1.4017372774885113,1.4028497972378344,10.23106299578663,0.5000000000000001
26.0,-0.26608188342400346,-1.4156280257272844,1.4810007606239977,1.3231432229906994,10.26379610416292,0.5200000000000001
27.0,-0.292453822406692,-1.1962720485462432,1.5573867345181,1.2564994034934052,10.284589903393561,0.5400000000000001
28.0,-0.3146587133669577,-0.9855279737853043,1.631918352104014,1.2033660097382899,10.29904913142635,0.5600000000000002
29.0,-0.333345772960596,-0.7746236457030696,1.7050086493379288,1.164052324823247,10.308910488539594,0.5800000000000002
30.0,-0.34842635386076726,-0.5607923982068548,1.77707692444339,1.138731803066306,10.312351586973474,0.6000000000000002
31.0,-0.35853315970065514,-0.3417571919440755,1.8482587239970472,1.1274395511721602,10.309680063960705,0.6200000000000002
32.0,-0.3632692633254704,-0.1233458754502815,1.9188554474907509,1.130130881454937,10.303043482598357,0.6400000000000002
33.0,-0.36080303994973645,0.10129125099166317,1.9891698482496205,1.1467198738352016,10.291223619962327,0.6600000000000003
34.0,-0.3543753802654631,0.32332594982812907,2.0595229622702798,1.177088679121676,10.274449872417915,0.6800000000000003
35.0,-0.3439270287426386,0.5404934191233122,2.13024925865957,1.2211688349654457,10.252872014572866,0.7000000000000003
36.0,-0.3291466179815901,0.7580376072603865,2.2014378989333125,1.2788324907597022,10.226330897704559,0.7200000000000003
37.0,-0.3106966299723827,0.972148075027963,2.2730175243786377,1.3498160499779122,10.194496945304701,0.7400000000000003
38.0,-0.2891339852579906,1.1777076498521974,2.3452724028704033,1.4339290752074596,10.164171649056692,0.7600000000000003
39.0,-0.2628405091678801,1.3877408457300122,2.41837633731538,1.5310220787651045,10.119342819152637,0.7800000000000004
40.0,-0.23348938951690498,1.5901887765002243,2.492013790939203,1.6410703409938798,10.078624120994453,0.8000000000000004
41.0,-0.20183173558508696,1.7943541577913211,2.5651577429193124,1.764139260928174,10.040379164077843,0.8200000000000004
42.0,-0.16630066782433156,1.8207590658513153,2.634484114892575,1.747954606099482,-7.72562206584972,0.8400000000000004
43.0,-0.12685438846246852,1.639722894843905,2.70898185994382,1.5632353090114313,-10.068958164199636,0.8600000000000004
44.0,-0.09122736382915758,1.4302948684212757,2.7835858633518082,1.3525474470120282,-10.11683506169778,0.8800000000000004
45.0,-0.054643506185683983,1.2137771798281385,2.854666070220235,1.1356574954287968,-10.16986507855504,0.9000000000000005
46.0,-0.024981326449796698,0.9776119821170824,2.9210294764986564,0.9132574079118967,-10.222183536432569,0.9200000000000005
47.0,-0.007148956695967165,0.7428176935341841,2.981665724891115,0.6865593149213839,-10.271015214682988,0.9400000000000005
48.0,-0.0027738201497153566,0.48935544512755613,3.0340117882936553,0.45723342158463837,-10.314625221316007,0.9600000000000005
49.0,-0.0003339647680449163,0.2448808691006455,3.0782857451165855,0.22823172656332366,-10.35177623763315,0.9800000000000005
50.0,0.0005284575150412476,0.013883933028092038,3.113367165110681,0.004830228574509194,-10.285486536718468,1.0000000000000004
