node_idx,x,v,theta,omega,force,time
0.0,-6.030430980595393e-06,0.004657081959559008,0.010266445860092965,-0.0013500726066413005,11.199634829758617,0.0
1.0,0.0024956334405708772,0.24859919967070815,0.04127596649409122,-0.24176781676250556,11.482951055342886,0.02
2.0,0.009940914415875312,0.49470503506751584,0.07669766623490354,-0.48395276572884793,11.19087407220363,0.04
3.0,0.022229787191806284,0.7303667402965345,0.10989453436359783,-0.7137691132399745,10.833363312360815,0.06
4.0,0.039108233057225085,0.9531039216906566,0.13916659893366456,-0.927496269554733,10.465308188213836,0.08
5.0,0.06031562808044354,1.1636388112739606,0.164235938593326,-1.1252300515167184,10.164765146449374,0.1
6.0,0.08376526374681853,1.1774273401862028,0.18617816985355018,-1.1258308552642033,-8.770316541750248,0.12000000000000001
7.0,0.10529595006674078,0.9741190304547989,0.21125202355879222,-0.9149470762480497,-10.606902945247176,0.14
8.0,0.12234333942110458,0.7438547606925804,0.23999073315032357,-0.6773834562193358,-10.88411228424673,0.16
9.0,0.13479949395976873,0.5068132515320147,0.27175880357663273,-0.4333321595389607,-11.043592462888219,0.18
10.0,0.14295187836509154,0.2681979576830959,0.31018529523965416,-0.18824923154573814,-11.127772376995827,0.19999999999999998
11.0,0.14619642373308325,0.03187301900680721,0.3559854048205056,0.05284646855982293,-11.162805434783134,0.21999999999999997
12.0,0.1442840153666681,-0.20270160006398777,0.4037291181622485,0.28693342885220885,-11.162756486890284,0.23999999999999996
13.0,0.1384206802818745,-0.43844187356407754,0.45796077537137486,0.5104333733696296,-11.134308176357312,0.25999999999999995
14.0,0.127446268950474,-0.6706988914807984,0.5172288257046371,0.720659808166323,-11.079943114339061,0.27999999999999997
15.0,0.1126149296538457,-0.8939021216170446,0.5801942355527631,0.91529326130668,-10.999304664064422,0.3
16.0,0.09336047203587547,-1.1110862070842689,0.6459960643817845,1.0922770476362162,-10.891358871341353,0.32
17.0,0.06881487436166576,-1.327551769359027,0.7159599920263657,1.2497490584322204,-10.755409756331149,0.34
18.0,0.04027135948236209,-1.540416022527304,0.7890883637621162,1.386288698133096,-10.595138032687847,0.36000000000000004
19.0,0.007594229489693495,-1.7345255988656199,0.8655288480158276,1.5010817807000125,-10.421273631210886,0.38000000000000006
20.0,-0.028348008105584414,-1.9221882414050913,0.9439809193875361,1.5943538474135288,-10.254252071053385,0.4000000000000001
21.0,-0.06817245003694562,-2.1032650371565524,1.0255604753658367,1.6668758632356238,-10.119452289929592,0.4200000000000001
22.0,-0.11111361631094056,-2.1878134194192054,1.1149569716458443,1.6768483587026626,0.401971964042324,0.4400000000000001
23.0,-0.1518315362550465,-2.0795163035283135,1.2123978755660685,1.6010492442179587,10.351689853272545,0.46000000000000013
24.0,-0.19246629684912436,-1.8718462468041592,1.2964721067018112,1.4973279371932628,10.566319129477433,0.48000000000000015
25.0,-0.22582466661079859,-1.6601561761109074,1.3759831029374914,1.405319902182625,10.701597619355061,0.5000000000000001
26.0,-0.25574436050073773,-1.440918538405431,1.4506470218797596,1.3257245476006907,10.7961713304036,0.5200000000000001
27.0,-0.28389340488080456,-1.2304168695712254,1.525301838076494,1.2593263161170805,10.863219973209384,0.5400000000000001
28.0,-0.3054401460692194,-1.0135867274080783,1.5983874895450503,1.2066627728864052,10.908481116774485,0.5600000000000002
29.0,-0.3241149410529164,-0.7999416119031567,1.6690924045324647,1.1677656292718994,10.935305831125467,0.5800000000000002
30.0,-0.3384788669423714,-0.5844112498236067,1.7408040285035573,1.1429977606418826,10.945190701067636,0.6000000000000002
31.0,-0.3512781246746409,-0.3661982155737992,1.8111436906042826,1.132374360559691,10.939418684970446,0.6200000000000002
32.0,-0.3573276974739436,-0.1456587126402966,1.8812185563595032,1.135804733191399,10.918187538548418,0.6400000000000002
33.0,-0.3572635197623015,0.0704685181872458,1.951254695000589,1.1532142755468762,10.882346051148327,0.6600000000000003
34.0,-0.34862670488157527,0.2886982827910528,2.02175630851023,1.1845224016514773,10.831163607380574,0.6800000000000003
35.0,-0.34103693922839984,0.5041266319067318,2.0933982932647504,1.2296087054749458,10.764730329698041,0.7000000000000003
36.0,-0.32824118073222974,0.7229797010156588,2.166523264267428,1.288610382731969,10.682956248393813,0.7200000000000003
37.0,-0.3096788686657797,0.9324715671701149,2.239256310543986,1.360882309548561,10.587193640362212,0.7400000000000003
38.0,-0.2904530600095598,1.141357562622666,2.3136275979640533,1.446205926248731,10.47781294075083,0.7600000000000003
39.0,-0.263546866554514,1.3467144831145705,2.389531972529043,1.5443744742835366,10.357766876584895,0.7800000000000004
40.0,-0.2424952967241282,1.5475879055463564,2.467477209384787,1.6554773890831338,10.232620796005714,0.8000000000000004
41.0,-0.21006793717773828,1.7533888224441871,2.546614224325265,1.7792087192243384,10.11378468521653,0.8200000000000004
42.0,-0.1730565307592153,1.769514153873556,2.621970560153949,1.7609032530344413,-8.239170065861552,0.8400000000000004
43.0,-0.13583275581945706,1.5831729563680774,2.7005087379823696,1.5746737648522906,-10.204868004630061,0.8600000000000004
44.0,-0.10112011260019253,1.3757964242160752,2.7771640824813835,1.3655323557676986,-10.354486396110323,0.8800000000000004
45.0,-0.06955674085333491,1.1632640235388203,2.8493322176532674,1.1494221776488687,-10.515959026331048,0.9000000000000005
46.0,-0.0363139240451779,0.9427762202208663,2.916824763099092,0.9269596990561497,-10.67497592216237,0.9200000000000005
47.0,-0.016127530062564184,0.7192043773858567,2.9797981655800863,0.6989342328679019,-10.823107430131989,0.9400000000000005
48.0,-0.009190162974905386,0.4716163655187134,3.0374815860040107,0.4664052506871317,-10.955157313687836,0.9600000000000005
49.0,-0.002349200250604131,0.23532736001478574,3.087500563933377,0.23121550889422945,-11.068847721201307,0.9800000000000005
50.0,4.752119251592495e-06,0.0033016941415791494,3.1241248703079876,0.00043041535314572416,-10.867061337955162,1.0000000000000004
