node_idx,x,v,theta,omega,force,time
0.0,2.215830557067668e-09,7.504413920930253e-05,0.0030204272112707153,0.00021450790558304387,11.829225779517655,0.0
1.0,0.0006338317677511335,0.12670807224013095,0.02326630991593012,-0.12654303569115286,12.834212373784922,0.01
2.0,0.0025333579062245676,0.25307530073059725,0.04526664786707651,-0.2522582849763061,11.778218254022445,0.02
3.0,0.005687908809435415,0.3773795552624642,0.0658471687094615,-0.3763743181503237,12.478711494296412,0.03
4.0,0.01007359094864141,0.49929220382800665,0.08539454123583305,-0.4967334010521322,11.362825360848309,0.04
5.0,0.01566385991248074,0.6182882025333863,0.10359750713696537,-0.6143409682070234,11.95843140604923,0.05
6.0,0.02243182058001961,0.734829645308631,0.12083813052185373,-0.7278709197820644,10.940016032220822,0.06
7.0,0.030345392256844315,0.8474368054050497,0.13673638657062026,-0.8374074872673688,11.297592690902642,0.06999999999999999
8.0,0.03937352756032313,0.9577466476526427,0.15182339354255844,-0.9428516971810175,10.54626250109925,0.08
9.0,0.04948356445524244,1.0638786330161927,0.16557773937441622,-1.0439037162244882,10.613503770752468,0.09
10.0,0.06064526163887065,1.1680881443131605,0.17867648949586262,-1.1411349691782307,10.219012221840309,0.1
11.0,0.0729861667545423,1.2845108044012927,0.19028795899826706,-1.2499333264053978,10.104533379550157,0.11
12.0,0.08602541019321802,1.307759821576315,0.2016381667919301,-1.2654866581340805,-8.43491502184911,0.12000000000000001
13.0,0.09861695726466853,1.208678037218184,0.21297511529784952,-1.1610577274109548,-10.876635966223692,0.13
14.0,0.11016299138455264,1.0986697604867832,0.22614412784094987,-1.0446598382292023,-10.583881443957509,0.14
15.0,0.12058819283234556,0.9860395995015587,0.23970715125747882,-0.9261411749658922,-11.562067042558569,0.15000000000000002
16.0,0.12987831187842155,0.871667151601598,0.25532910172565215,-0.8050932145977442,-10.911407708267474,0.16
17.0,0.13801403068524395,0.755256242263227,0.27124311396723955,-0.6829050387750929,-11.943653952349543,0.17
18.0,0.1449798430592531,0.637697026285318,0.2893783576928418,-0.5592337423886168,-11.143590925734962,0.18
19.0,0.15076514429752697,0.519238700401583,0.3076961732943192,-0.435958157548282,-12.149550345568487,0.19
20.0,0.1553626677035848,0.4001503276791498,0.3283660136503491,-0.3121815129120124,-11.294808820248047,0.19999999999999998
21.0,0.158767818938081,0.28083767607501464,0.3490921073160291,-0.18988515406341547,-12.249966906333125,0.21
22.0,0.16097889441133797,0.1613425070643195,0.3722754110889865,-0.06800033754294499,-11.378279476294388,0.21999999999999997
23.0,0.16199578277165888,0.04206402384174196,0.3953756733348817,0.05155097129997115,-12.281491839408572,0.22999999999999998
24.0,0.16182088243429898,-0.07700876081773735,0.4210151892970829,0.1698453590490029,-11.404863334199392,0.23999999999999996
25.0,0.16045774049126904,-0.19552801920656118,0.44642305063788285,0.28506567127235555,-12.261195851308381,0.24999999999999997
26.0,0.15791211709093647,-0.3134989064331902,0.4744287761865039,0.3982468276013672,-11.382417562087126,0.25999999999999995
27.0,0.15419081685824906,-0.43061307558277284,0.502049193914935,0.5076693809599521,-12.194861411106388,0.26999999999999996
28.0,0.14930261929448796,-0.5468721569948193,0.5323002048541887,0.6143349506331218,-11.31633546297296,0.27999999999999997
29.0,0.14325744455672104,-0.6619638751719712,0.5620126451891067,0.7165905913490573,-12.081130857102599,0.29
30.0,0.13606696186329223,-0.7759272201328296,0.5943583316134649,0.8154450189167539,-11.210664819779774,0.3
31.0,0.12774420382787702,-0.8883809414790428,0.6260194460749441,0.9092704530520171,-11.914032036909502,0.31
32.0,0.11830368653826706,-0.9994721894194185,0.6602808734913623,0.9991409219482182,-11.069569305235468,0.32
33.0,0.10776155455978377,-1.108674766963472,0.6937273379958361,1.083416956349714,-11.685979325880313,0.33
34.0,0.09613508145193574,-1.2163333879767935,0.729699506532079,1.163296376907241,-10.898851612924963,0.34
35.0,0.083443320995037,-1.3217153750560107,0.764751324848565,1.2371190837372101,-11.393130972704654,0.35000000000000003
36.0,0.0697059676504314,-1.4254452722917772,0.8022071926403402,1.3062380583894555,-10.707647783993384,0.36000000000000004
37.0,0.05494427541965834,-1.526581952706938,0.8386718925032997,1.3690208892828357,-11.043939443128817,0.37000000000000005
38.0,0.03917951641210396,-1.62605292573017,0.8773693789396552,1.4269417664187485,-10.50901768931636,0.38000000000000006
39.0,0.022433640682608735,-1.7228224028623733,0.915047689520251,1.4785189525988789,-10.66870434699839,0.39000000000000007
40.0,0.0047278885434475105,-1.8180241687440546,0.9547395910516772,1.5252278790538492,-10.319807846249796,0.4000000000000001
41.0,-0.013917551367647316,-1.9107949675349123,0.9934339495515666,1.565922737111476,-10.325599352101019,0.4100000000000001
42.0,-0.033483910255690225,-2.0022056711214984,1.033881088617585,1.6018768524951317,-10.157682197638167,0.4200000000000001
43.0,-0.05395563079420791,-2.091917871793202,1.073417583671619,1.6324528586812987,-10.088142238340803,0.4300000000000001
44.0,-0.07531919486952444,-2.180569383777429,1.1144126961886374,1.6585352024019908,-10.039407486770644,0.4400000000000001
45.0,-0.09724087393281379,-2.188030835571483,1.1555267683354784,1.6469981645528666,5.611890844230757,0.4500000000000001
46.0,-0.1187665708761506,-2.101366592029284,1.1957369606340333,1.5969947659156278,10.343900525284647,0.46000000000000013
47.0,-0.1392620233802883,-1.9975324107156585,1.2358587068592437,1.543623874495209,11.042941287091216,0.47000000000000014
48.0,-0.15871499778011725,-1.892873179326398,1.2745072248707048,1.4929340776848066,10.575749229310404,0.48000000000000015
49.0,-0.17711548344931635,-1.7870850479675586,1.313674097750417,1.4450659283396716,11.340903934781446,0.49000000000000016
50.0,-0.19445548413738276,-1.6807776906631502,1.3512646430976296,1.4000827175784922,10.735944261047194,0.5000000000000001
51.0,-0.21072892824814476,-1.5738007032498025,1.3895933145037451,1.35834991590494,11.545735084142557,0.5100000000000001
52.0,-0.22593081792722994,-1.4664687626021082,1.4262720626165661,1.3196270017371166,10.852396853805534,0.5200000000000001
53.0,-0.2400573168696699,-1.3587409691077377,1.463878035523758,1.284434161902895,11.689433143071735,0.5300000000000001
54.0,-0.2531053147437496,-1.2507710474072034,1.4997899972346134,1.2523212687481935,10.935063915354071,0.5400000000000001
55.0,-0.265072483905957,-1.1425890455980359,1.5367962813979095,1.2239282271990544,11.787064075433154,0.5500000000000002
56.0,-0.2759570355742071,-1.034250643844868,1.572088446327754,1.1986442154087162,10.989383605736204,0.5600000000000002
57.0,-0.2857577439073913,-0.9258313951455635,1.6086231616890967,1.1772114185878424,11.847573191126692,0.5700000000000002
58.0,-0.2944738058476311,-0.8173250955599273,1.6434441120484014,1.1588863058091181,11.01895598015619,0.5800000000000002
59.0,-0.302104857994249,-0.7088386159834769,1.6796384411825116,1.1445043962448462,11.87644307060206,0.5900000000000002
60.0,-0.30865088218968234,-0.6003238890992745,1.7141376860843756,1.1332067987890213,11.0264123646621,0.6000000000000002
61.0,-0.31411224249848285,-0.4919137200032535,1.7501243815547842,1.1259165836108362,11.87685955003249,0.6100000000000002
62.0,-0.3184895932821705,-0.3835270179083181,1.7844518116284644,1.1216720878663218,11.013790751882405,0.6200000000000002
63.0,-0.32178396063502723,-0.2753239974945174,1.8203641129396084,1.1214779506471542,11.850377156280548,0.6300000000000002
64.0,-0.32399662020640213,-0.16719111871989195,1.8546695758778442,1.1242812970278833,10.982739668440859,0.6400000000000002
65.0,-0.32512924373539703,-0.05932298608008517,1.8906404324088097,1.1311598769699038,11.79735181505389,0.6500000000000002
66.0,-0.32518371890525277,0.04843232339041842,1.9250733861639824,1.1409826913845895,10.934667701898492,0.6600000000000003
67.0,-0.32416238035558115,0.15583425113697677,1.9612348967526891,1.1548880196848461,11.717263616151437,0.6700000000000003
68.0,-0.32206774818121153,0.26308431961804035,1.9959440826558368,1.1716831773843208,10.870857960250175,0.6800000000000003
69.0,-0.3189028592395161,0.369880774304186,2.0324270899730794,1.19254913520667,11.60900584481102,0.6900000000000003
70.0,-0.31467090635390516,0.4764899751582255,2.067560171910104,1.2162524534255588,10.792536937924746,0.7000000000000003
71.0,-0.3093756807257698,0.5825312623486407,2.1044939655976522,1.24399320387631,11.471191796166114,0.7100000000000003
72.0,-0.30302109706995534,0.6883541549556563,2.140197148561216,1.2745232507266024,10.701028952182607,0.7200000000000003
73.0,-0.29561175211672064,0.7934803454541738,2.1777091867478178,1.3090326961860574,11.302558430783616,0.7300000000000003
74.0,-0.2871523293906919,0.8983621170794435,2.2141267029073775,1.3462894489770376,10.597863704362723,0.7400000000000003
75.0,-0.2776482636890962,1.0024067275387034,2.2523424110306713,1.3874410077756048,11.102542836276482,0.7500000000000003
76.0,-0.2671050374978906,1.1061865965697928,2.2896159615222595,1.4313046017295206,10.484801194094404,0.7600000000000003
77.0,-0.2555289136536724,1.2089852402689867,2.3286584554078633,1.47895363835567,10.872178809172976,0.7700000000000004
78.0,-0.24292615500926362,1.311506068948833,2.3669266048740294,1.5292865955101345,10.364126432573752,0.7800000000000004
79.0,-0.22930375088783872,1.4129151302936003,2.4069162708428506,1.5832812244277883,10.615608578907661,0.7900000000000004
80.0,-0.21466861876573728,1.5140445033857812,2.4463141520418965,1.6399384748474068,10.239298228756027,0.8000000000000004
81.0,-0.19902814569645624,1.6139837736952172,2.487367076932201,1.7001506138665998,10.342956649627409,0.8100000000000004
82.0,-0.18238966192450887,1.7136399118148953,2.5280222789944857,1.7630001931535293,10.111689796638416,0.8200000000000004
83.0,-0.16477531018616237,1.7928439362068316,2.5701099424881555,1.8135034904564198,4.579644196945217,0.8300000000000004
84.0,-0.14685973365320912,1.7738791908749012,2.611524741918623,1.7821318178252301,-10.069886042791232,0.8400000000000004
85.0,-0.12961543772037584,1.6747391968398022,2.6528632544270674,1.6831119596429878,-10.242017970464362,0.8500000000000004
86.0,-0.11336884199994812,1.5743330734753958,2.6929168712455973,1.5816754395445365,-10.205566418417758,0.8600000000000004
87.0,-0.09813751957468632,1.4716879961528824,2.7322342576165566,1.478681366967075,-10.545511324453647,0.8700000000000004
88.0,-0.08393886985423907,1.3677923169939457,2.7702311778460906,1.3734506406944096,-10.358245020953794,0.8800000000000004
89.0,-0.07079057076176579,1.2616217772794358,2.8074417251913255,1.2667638206837393,-10.873559181478118,0.8900000000000005
90.0,-0.058710110242257835,1.1542192935438287,2.8433011005566877,1.1579760316052117,-10.525007365847394,0.9000000000000005
91.0,-0.04771439105608349,1.0446805803382264,2.87832786215072,1.0479685532765508,-11.198127555490437,0.9100000000000005
92.0,-0.03782000345769986,0.933948770248444,2.9119845621150957,0.9359711998233,-10.699382248937763,0.9200000000000005
93.0,-0.029042403465611547,0.8213323018321536,2.94475598960859,0.8230748888720405,-11.499644762608005,0.9300000000000005
94.0,-0.021396652812579766,0.707575851975235,2.9761565994523154,0.7082720733232376,-10.875714963226624,0.9400000000000005
95.0,-0.014896400032833268,0.5922435017835341,3.006607946679133,0.5929190162105439,-11.766432301343487,0.9500000000000005
96.0,-0.009554844352830367,0.47583464080278226,3.0357084669597745,0.4757144795634077,-11.048978947203402,0.9600000000000005
97.0,-0.005383729189008798,0.3581669531259241,3.0637814192175523,0.3582830483040881,-11.99374800156516,0.9700000000000005
98.0,-0.002394329920247819,0.2394947481368868,3.090513405993225,0.23903536377918594,-11.215120755468734,0.9800000000000005
99.0,-0.0005982869105838123,0.11967826249670202,3.1161539523682547,0.11963579193313245,-12.182501686362071,0.9900000000000005
100.0,-4.605971240556453e-09,4.600074242038379e-05,3.1385035933080774,-0.0002300313637944834,-11.181375346890494,1.0000000000000004
