node_idx,x,v,theta,omega,force,time
0.0,1.2837261042379084e-05,0.013029875387991422,0.02315073084809112,-0.008340693657571318,10.53223413190009,0.0
1.0,0.0006754614228185824,0.1291062134131549,0.032381826750718636,-0.12538180672329724,10.824119340310608,0.01
2.0,0.00279952908109584,0.25345015776821644,0.05269187543740885,-0.24622716332174083,10.517321186901707,0.02
3.0,0.005910656571653486,0.37599769218793344,0.06802613428738509,-0.37022583175985935,10.72083078106104,0.03
4.0,0.011766295245455945,0.49582855144739,0.08634934666574284,-0.48546029275453345,10.39661521206132,0.04
5.0,0.019334603109966077,0.6167814880749027,0.1022524686024592,-0.6068227010250046,10.56954235737443,0.05
6.0,0.028329665128846368,0.731214463981493,0.11857030368224772,-0.7149467860052072,10.273765902002745,0.06
7.0,0.03841762135308363,0.8444873377151962,0.13287680326425744,-0.8295730399751257,10.377382454049592,0.06999999999999999
8.0,0.04819367347275931,0.9488101514848464,0.1475683442478138,-0.9298335863694928,10.159462565551888,0.08
9.0,0.0581921021666653,1.0578034571889559,0.15963568579712148,-1.036293832202633,10.178528236195785,0.09
10.0,0.06852680052946497,1.1597521372368416,0.1724194602166544,-1.1288487865040508,10.065017783890651,0.1
11.0,0.08145911856805167,1.2799275578969624,0.1821053814911277,-1.244088154702176,10.031431755489033,0.11
12.0,0.09496142376831287,1.293139228959755,0.19226473561465246,-1.246525426018153,-10.252873317291078,0.12000000000000001
13.0,0.10743477970665723,1.1914095327117322,0.19942102168596154,-1.1396268289939864,-10.257354348557907,0.13
14.0,0.11892929324338666,1.0820509649568113,0.21404851302010883,-1.0205642316645795,-10.171976782010454,0.14
15.0,0.12931046584886866,0.9723130615569096,0.22336215528048853,-0.9069998298739484,-10.455571639606836,0.15000000000000002
16.0,0.1386286363910526,0.8554199739903885,0.24115672857271073,-0.7829327125153147,-10.266350561859399,0.16
17.0,0.14745632410438766,0.7413638332041856,0.25255972880253136,-0.6646305083507795,-10.566375379517456,0.17
18.0,0.15517657622562978,0.622247612142131,0.27347918908316726,-0.5387132474769024,-10.33363291709148,0.18
19.0,0.1600277527850596,0.506177680189006,0.2869932030259222,-0.4184529388191999,-10.626218885439206,0.19
20.0,0.16322588775519284,0.3876754477694439,0.31097140774461546,-0.2929553654445985,-10.377496391322685,0.19999999999999998
21.0,0.16562810905229203,0.26931926855028165,0.32663577851852615,-0.173067309212241,-10.655401635157338,0.21
22.0,0.16684719682027305,0.1513322059334175,0.3535674109337209,-0.04984937465742338,-10.401701756868245,0.21999999999999997
23.0,0.1678648659549601,0.03207085304601644,0.37137543368194953,0.06772245038551783,-10.664563912736126,0.22999999999999998
24.0,0.1678594511022897,-0.08654332041026806,0.401143746523272,0.18703532392294342,-10.409399186139275,0.23999999999999996
25.0,0.16595015042476713,-0.20277553545645038,0.42104976012543094,0.30060269529116,-10.65867152555668,0.24999999999999997
26.0,0.16301232985868766,-0.31861268850954744,0.45355173642689756,0.41452948185345306,-10.40286491742296,0.25999999999999995
27.0,0.1584490504370497,-0.4352698455439467,0.47552807235461436,0.5225676445182718,-10.63939258027204,0.26999999999999996
28.0,0.15274263395929757,-0.5498635721124642,0.5106182175822293,0.6297282627506429,-10.383650375131566,0.27999999999999997
29.0,0.1467736228622301,-0.6649796172331592,0.5346345540592462,0.7308400949729537,-10.606314995482677,0.29
30.0,0.13935129801418317,-0.7763755149472227,0.5721036675396975,0.8299514396695719,-10.352922780820109,0.3
31.0,0.1301982658153542,-0.8870379597349537,0.5980900228779589,0.9228645775362222,-10.557712762313356,0.31
32.0,0.11967946033840778,-0.9952128314557355,0.6376950580305238,1.012774622580941,-10.311913640812621,0.32
33.0,0.1085844018301981,-1.104451739546277,0.6655457496935251,1.0963633964520438,-10.491416693475133,0.33
34.0,0.09683181173028507,-1.2111482587469382,0.7070473751855195,1.1761178122778693,-10.262307605795796,0.34
35.0,0.08415541115031462,-1.3178045392105784,0.7366886536442777,1.249459384119316,-10.406256311065336,0.35000000000000003
36.0,0.0705383408677638,-1.4191249189420476,0.7797639319456154,1.3183716409472825,-10.206745046861057,0.36000000000000004
37.0,0.05567405209118181,-1.5198658963063192,0.8110571814455989,1.3808314234404757,-10.304709183471493,0.37000000000000005
38.0,0.03973473500827403,-1.6151527836948298,0.855390821398105,1.438591901978189,-10.149075773857827,0.38000000000000006
39.0,0.022577089027427968,-1.7119461461182255,0.8881262383748455,1.4899108546002642,-10.195618732111527,0.39000000000000007
40.0,0.004917701316993595,-1.8044227326428244,0.9336083110358842,1.5366908838538953,-10.094263323744809,0.4000000000000001
41.0,-0.013752464480756713,-1.8965984849501178,0.9675360090239842,1.5770612237155035,-10.095930420336007,0.4100000000000001
42.0,-0.03307853649410607,-1.984644542927383,1.0148758783142156,1.6135381839992915,-10.047606391919372,0.4200000000000001
43.0,-0.05316258008319177,-2.0732308762807152,1.0497245178716916,1.6435864357874257,-10.027240985227733,0.4300000000000001
44.0,-0.07390266362905826,-2.158086537495192,1.1024816259338872,1.6706434735347446,-10.015879347921654,0.4400000000000001
45.0,-0.09504659993609482,-2.181213363388002,1.1519712336572505,1.6637583592241227,2.9558812294486785,0.4500000000000001
46.0,-0.11666171923094992,-2.105570522507,1.1962864688623718,1.6187995309926135,10.10524207691928,0.46000000000000013
47.0,-0.13722592206963458,-2.003043612134303,1.2443884124535547,1.5650353203344192,10.3040764124142,0.47000000000000014
48.0,-0.15715239391127364,-1.8950498279498387,1.2813522833484357,1.5136946595582723,10.169042143649142,0.48000000000000015
49.0,-0.17657246151809763,-1.787862105393385,1.3256822371195969,1.4653235352895013,10.390269048648864,0.49000000000000016
50.0,-0.19402526699891345,-1.6793853891909412,1.361098043131493,1.4197522799568862,10.215059732362143,0.5000000000000001
51.0,-0.21004047876930998,-1.5721751027061546,1.4036723699649383,1.37746230309655,10.449719198426305,0.5100000000000001
52.0,-0.22473185139677285,-1.4647082461341994,1.4375756538141593,1.3381011067684152,10.248706070589806,0.5200000000000001
53.0,-0.2390573308623518,-1.3574935839856708,1.4797269055039801,1.302319295078357,10.491502434797663,0.5300000000000001
54.0,-0.25282032666453697,-1.2492279038166025,1.5129496505529139,1.2694916001074683,10.272684333030362,0.5400000000000001
55.0,-0.2647229690873897,-1.1420758645857108,1.554407913341907,1.2406204290256315,10.519931570245605,0.5500000000000002
56.0,-0.27557671093668595,-1.032760520879476,1.5863613485090369,1.2145138038760712,10.288442198114273,0.5600000000000002
57.0,-0.28538718313318967,-0.9251371357684607,1.6274826329646455,1.192722191836157,10.537603767824669,0.5700000000000002
58.0,-0.2941241586590491,-0.8162300532321524,1.6587281926814794,1.173430016597535,10.297053023961077,0.5800000000000002
59.0,-0.30180285683847446,-0.7084760381211739,1.699459502863215,1.1588353438775063,10.546079991814787,0.5900000000000002
60.0,-0.308532134231365,-0.6002317180423314,1.7300759144833862,1.1463888146325791,10.299255453091856,0.6000000000000002
61.0,-0.31406463740377216,-0.49240243672928335,1.7709099399838353,1.139029841038912,10.54629461001819,0.6100000000000002
62.0,-0.3182996156187751,-0.3842124280207804,1.801144143013899,1.1334631276394653,10.29563827004789,0.6200000000000002
63.0,-0.32157732837448655,-0.27641322857571304,1.8418868823441876,1.1334145989227418,10.538682524261578,0.6300000000000002
64.0,-0.3236656349458935,-0.1685931422509972,1.871681283560523,1.1346903528566086,10.286674922877495,0.6400000000000002
65.0,-0.3246589530024282,-0.060892058420485666,1.9123804843533334,1.1418698289214297,10.523373455671639,0.6500000000000002
66.0,-0.3247946743154364,0.04733619903549189,1.942300951905121,1.149912960016408,10.272784573996528,0.6600000000000003
67.0,-0.32378728316778466,0.1553464351406302,1.9831593673433476,1.164322498592393,10.50020308331223,0.6700000000000003
68.0,-0.3217848905348788,0.2627228724378058,2.013254031780503,1.1790991489383618,10.254328593922871,0.6800000000000003
69.0,-0.3186659305237417,0.3695003324343704,2.054362522869619,1.2007166192619632,10.46883535031957,0.6900000000000003
70.0,-0.31442298134185365,0.4750840494976745,2.084631312333955,1.222157920297757,10.231687790939093,0.7000000000000003
71.0,-0.3091620361065158,0.5817023448131179,2.1259364406207513,1.2508897226796327,10.428874841856928,0.7100000000000003
72.0,-0.3028053238345204,0.6867643399773629,2.1565947491750714,1.2788475134010713,10.205227692542596,0.7200000000000003
73.0,-0.2954259393811241,0.7924805290410016,2.1984857425018736,1.3145715797357,10.379964047172152,0.7300000000000003
74.0,-0.2869610181200405,0.8963332033818651,2.23013781592633,1.3489878138896267,10.175475235332383,0.7400000000000003
75.0,-0.2774171795419891,1.0001750637439584,2.2721993186165617,1.391642458230353,10.321990080733949,0.7500000000000003
76.0,-0.26685303629552043,1.102294679348691,2.3044170663914074,1.432352744696158,10.142948793635336,0.7600000000000003
77.0,-0.25526495223538104,1.2050891976079459,2.3468348058521866,1.4817389387501787,10.25523177208604,0.7700000000000004
78.0,-0.24267046567344475,1.3058305416950586,2.380164107252431,1.5285961398753336,10.108416875785991,0.7800000000000004
79.0,-0.22905607200140835,1.4073150167290427,2.423027507999297,1.5845568807870964,10.181041053047583,0.7900000000000004
80.0,-0.21444912519553222,1.5068867195132698,2.4574650898790114,1.637530933877731,10.073558567988519,0.8000000000000004
81.0,-0.19886393389305163,1.6078536354692166,2.501302867147708,1.6999674603811674,10.103009958642403,0.8100000000000004
82.0,-0.18228769329284095,1.7066852678733127,2.53631085667954,1.7591923379252434,10.043671740424776,0.8200000000000004
83.0,-0.16472012361300942,1.7892974958836607,2.579110617151106,1.8136705113528755,4.844207589784323,0.8300000000000004
84.0,-0.14681759726896124,1.7711433132146301,2.614733627418262,1.7800276660026506,-10.029322413976928,0.8400000000000004
85.0,-0.12957857277447338,1.6733118623157113,2.654131404896558,1.6835805753618658,-10.072182009010028,0.8500000000000004
86.0,-0.11333453583400904,1.5714824224083983,2.693711660759855,1.57782483137555,-10.062656561166678,0.8600000000000004
87.0,-0.09810702487045837,1.470151065723841,2.7332100672778337,1.4781596230705203,-10.159246386337472,0.8700000000000004
88.0,-0.08391139777442032,1.3647532266023192,2.770440207605313,1.3683997576511815,-10.105752072601065,0.8800000000000004
89.0,-0.07076683489838721,1.2600050035476598,2.808182710642331,1.2654106287504543,-10.254316764192964,0.8900000000000005
90.0,-0.058689578743056685,1.15111816999531,2.843085289618049,1.1520231479452232,-10.153712737259772,0.9000000000000005
91.0,-0.04769718573586061,1.0430628043834003,2.878459115733586,1.0458960054182127,-10.34857861870332,0.9100000000000005
92.0,-0.037806057192553144,0.9309447320838843,2.9110577502856487,0.9293512655502881,-10.204175903018095,0.9200000000000005
93.0,-0.029031113572221313,0.8197919792742314,2.9438246073905225,0.8203842298012254,-10.436238170996901,0.9300000000000005
94.0,-0.02138917581747707,0.7048549851722329,2.974008528376885,0.7012621480030972,-10.255313807525276,0.9400000000000005
95.0,-0.014890685043994108,0.5908994686790884,3.0040512121007894,0.5897787957908786,-10.513827491036047,0.9500000000000005
96.0,-0.009555623868314822,0.4738738165070089,3.0311388257958027,0.46901037708772975,-10.305607752175343,0.9600000000000005
97.0,-0.005384813716042678,0.35744782262013647,3.0584019796902413,0.3552911255882879,-10.579954791621734,0.9700000000000005
98.0,-0.002405657467524836,0.24019493308943707,3.080066802782041,0.235081138656003,-10.353854860814906,0.9800000000000005
99.0,-0.0006053484882843192,0.1216045869325317,3.10390117126876,0.1192536820927236,-10.634799438963597,0.9900000000000005
100.0,1.660933841061232e-05,0.009674591293986994,3.1159379746143516,0.005437706992136862,-10.344396433343393,1.0000000000000004
