node_idx,x,v,theta,omega,force,time
0.0,-9.827316267860715e-09,0.0002208833658563943,0.00465993707473286,0.00024400738646535695,11.754548227030282,0.0
1.0,0.0006338544332699859,0.12670463184862263,0.02333732776377794,-0.12645466100537428,12.718488278251574,0.01
2.0,0.0025333809611964063,0.25302956816254135,0.045354576187647364,-0.2518935582069077,11.705622844678803,0.02
3.0,0.0056879102223728936,0.3773677360189331,0.06578963273241224,-0.3762654048782555,12.377502694347484,0.03
4.0,0.010073603557652211,0.4992302656533225,0.08534843397228865,-0.49634109020886424,11.307188785295766,0.04
5.0,0.015664241999767233,0.618275913793529,0.1034852091683792,-0.614231955056439,11.87846541519211,0.05
6.0,0.022432572532387743,0.7347626442964096,0.12076022996160425,-0.7274786654114942,10.90163827327515,0.06
7.0,0.030346153447558852,0.8474249303449538,0.136575817557043,-0.8373002580470457,11.244605149372285,0.06999999999999999
8.0,0.03937428418785041,0.9576818019065467,0.15171933837562326,-0.9424705998035667,10.523954391650554,0.08
9.0,0.049484303888316,1.0638679585661162,0.1653727066974051,-1.0437996216291943,10.588437184961803,0.09
10.0,0.060645979941160215,1.168032778216877,0.17854584754302763,-1.1407772106209846,10.210055696921268,0.1
11.0,0.07298689003263252,1.2845008509925582,0.19004138313932567,-1.2498331061369936,10.100231578219164,0.11
12.0,0.08602612714385154,1.3076937727228335,0.2014161325808498,-1.2651389752288578,-8.429680964379692,0.12000000000000001
13.0,0.09861760730279687,1.208665915172668,0.21251598009019107,-1.1609579274625292,-10.840887853114618,0.13
14.0,0.11016356919690441,1.0986176570964639,0.2258676198735205,-1.044335165038653,-10.560066552371175,0.14
15.0,0.12058881338172693,0.9860300180621068,0.2391691733545619,-0.9260463484540452,-11.498341323378064,0.15000000000000002
16.0,0.12987897136353943,0.8716322845947636,0.25501055296575775,-0.8047973291903346,-10.874227105921108,0.16
17.0,0.13801467712446275,0.7552485639877957,0.2706299801110676,-0.6828149914716952,-11.86435027060342,0.17
18.0,0.14498046602035114,0.6376743949720616,0.28901959744495187,-0.5589614247687282,-11.096933792787516,0.18
19.0,0.15076566256890186,0.5192327349764895,0.30701045145712846,-0.4358727023183437,-12.061841513028483,0.19
20.0,0.15536307926168824,0.4001366411431796,0.3279682868941458,-0.3119284155697373,-11.241979512336059,0.19999999999999998
21.0,0.1587682362278734,0.2808332024103406,0.3483360065353863,-0.18980413515507977,-12.158159826562583,0.21
22.0,0.16097931754315364,0.16133558427401612,0.371840109677801,-0.06776350465586829,-11.322043439228052,0.21999999999999997
23.0,0.1619961958844795,0.04206072229675359,0.3945518389225704,0.051627601265043975,-12.188399494009941,0.22999999999999998
24.0,0.16182127993612852,-0.0770101646232926,0.42054424784071526,0.17006762879872775,-11.347542883646522,0.23999999999999996
25.0,0.16045814529960803,-0.19553026275355298,0.4455353505262282,0.2851378346062077,-12.168934079430079,0.24999999999999997
26.0,0.15791252624047397,-0.31349509310651735,0.47392502126679503,0.39845520501704057,-11.326014272544702,0.25999999999999995
27.0,0.15419118721389002,-0.4306141979979134,0.5011034120522075,0.5077369024907287,-12.10530981287539,0.26999999999999996
28.0,0.14930294819542753,-0.546863044399085,0.5317676235592375,0.6145292961507384,-11.262630637074642,0.27999999999999997
29.0,0.14325774227435029,-0.6619639750238769,0.5610170264489107,0.7166532570343623,-11.996224323576282,0.29
30.0,0.13606722463008378,-0.775912784263118,0.5938022105408204,0.8156246357723251,-11.161274341706825,0.3
31.0,0.12774443751221884,-0.8883799444405026,0.6249850082827065,0.9093280888286387,-11.835949104129396,0.31
32.0,0.11830389002859655,-0.9994517131174355,0.6597077518782817,0.9993049258895903,-11.025938851110404,0.32
33.0,0.10776171868014729,-1.1086726165059544,0.6926677985284411,1.0834695162413746,-11.617207904108515,0.33
34.0,0.09613520421574274,-1.2163070387975496,0.729116892750757,1.1634441486491127,-10.862189703687983,0.34
35.0,0.0834434428615662,-1.3217123333828094,0.763682423732688,1.237166729081672,-11.33631522849868,0.35000000000000003
36.0,0.06970608762575357,-1.4254137381294214,0.8016230416026576,1.3063697463403354,-10.678789715135052,0.36000000000000004
37.0,0.054944429021267525,-1.5265782122587184,0.8376098652575775,1.3690640393433742,-11.001377581843043,0.37000000000000005
38.0,0.03917970135620638,-1.6260177106058005,0.8767913879663105,1.427058645324481,-10.488265423772384,0.38000000000000006
39.0,0.022433784489973085,-1.7228181592125598,0.9140068196301722,1.478558345215553,-10.64145671905685,0.39000000000000007
40.0,0.004727987498160315,-1.8179878592873582,0.9541745255277782,1.5253331971321804,-10.306775536972035,0.4000000000000001
41.0,-0.013917507200081678,-1.910790357299265,0.9924234156246582,1.5659594206678416,-10.312351301795701,0.4100000000000001
42.0,-0.033483920710684026,-2.0021708158561284,1.0333356698208707,1.6019774798456756,-10.151262604677333,0.4200000000000001
43.0,-0.05395562820839075,-2.091913029234362,1.0724392644727894,1.6324885948307442,-10.084578706879672,0.4300000000000001
44.0,-0.07531918153304083,-2.1805289293427434,1.1139441849840914,1.6586470933835413,-10.037803752431552,0.4400000000000001
45.0,-0.09724086404147866,-2.1880225971664036,1.155647491422244,1.6470318818607494,5.606378230939373,0.4500000000000001
46.0,-0.11876655193249779,-2.1013083955105434,1.1959769614786642,1.5970542408200306,10.32983765094634,0.46000000000000013
47.0,-0.13926202186462078,-1.9975231677043261,1.2364327156225938,1.5436503425459824,11.000342402654505,0.47000000000000014
48.0,-0.1587150112796514,-1.8928284968289033,1.2748313474977757,1.4929697690862187,10.552234884409597,0.48000000000000015
49.0,-0.17711544062823553,-1.7870764189623345,1.3143312464913182,1.4450894055171697,11.28614730181748,0.49000000000000016
50.0,-0.19445538432662646,-1.6807374008683196,1.3516303929009212,1.4001013700543055,10.705895488867704,0.5000000000000001
51.0,-0.21072879266471126,-1.5737927838269314,1.390320316329973,1.358371106408171,11.482621288188488,0.5100000000000001
52.0,-0.22593064728465947,-1.4664317962538207,1.4266726781708254,1.3196297140787283,10.817597919568927,0.5200000000000001
53.0,-0.24005713135559198,-1.3587337004111764,1.464664438008948,1.2844530738314972,11.62045770028735,0.5300000000000001
54.0,-0.25310511566910754,-1.2507372152288807,1.5002204414081048,1.2523077885339273,10.896893501482404,0.5400000000000001
55.0,-0.26507229049870196,-1.1425823622539624,1.537632750153976,1.2239447006074127,11.714107738731926,0.5500000000000002
56.0,-0.27595684657377584,-1.0342197463967455,1.5725440874165013,1.1986140833956755,10.948998674158187,0.5600000000000002
57.0,-0.28575754646934287,-0.9258252483340125,1.6095009952232238,1.1772252511510557,11.772151595372115,0.5700000000000002
58.0,-0.29447359877655854,-0.8172973203346734,1.643920523345118,1.1588390326942768,10.977366635451999,0.5800000000000002
59.0,-0.30210468100796867,-0.7088330694386975,1.6805492897913643,1.14451538370622,11.799848015039695,0.5900000000000002
60.0,-0.3086507338248539,-0.6002994628206383,1.714630555004433,1.1331419169425345,10.984521324772073,0.6000000000000002
61.0,-0.3141121039565653,-0.49190882563123967,1.7510600344641856,1.1259245416995147,11.800252726350235,0.6100000000000002
62.0,-0.31848946156686114,-0.38350623681174195,1.7849568554573318,1.121589178860362,10.972417527472635,0.6200000000000002
63.0,-0.32178383516321396,-0.2753198446236938,1.8213162911292378,1.1214827251312451,11.77485672588989,0.6300000000000002
64.0,-0.323996498699439,-0.16717435906867298,1.8551824104918726,1.1241800071306278,10.942636433916107,0.6400000000000002
65.0,-0.32512912597205607,-0.05931969044286032,1.8916006742486728,1.1311613357088237,11.724001323125943,0.6500000000000002
66.0,-0.3251836028013708,0.04844468028154444,1.9255895679771533,1.1408627396326956,10.89652906868587,0.6600000000000003
67.0,-0.3241622655860116,0.15583664811724704,1.9621944889445424,1.15488605381684,11.64718772356599,0.6700000000000003
68.0,-0.3220676321754833,0.2630920488878766,1.9964590138823655,1.1715443715473055,10.83532607999322,0.6800000000000003
69.0,-0.3189027538389077,0.3698822475839033,2.033377010108772,1.192543653242964,11.543354249875822,0.6900000000000003
70.0,-0.3146708090373478,0.47649277068011286,2.0680691045764186,1.2160946962696648,10.760203793939876,0.7000000000000003
71.0,-0.30937558427770795,0.5825317288822156,2.1054248787495036,1.243984125544954,11.411170615812187,0.7100000000000003
72.0,-0.3030209988688645,0.6883517600477149,2.140695123152295,1.274346538950345,10.672432341742903,0.7200000000000003
73.0,-0.29561166145058215,0.7934797916329368,2.1786115195322338,1.3090199354114622,11.249425082800897,0.7300000000000003
74.0,-0.28715224331296824,0.8983544805798572,2.214608627311474,1.3460938665443458,10.573478816120968,0.7400000000000003
75.0,-0.27764818084640724,1.0024051202334734,2.2532064702472456,1.387424471739905,11.057577361625016,0.7500000000000003
76.0,-0.2671049555113668,1.1061735982729075,2.29007654380543,1.4310903396025643,10.465031124828034,0.7600000000000003
77.0,-0.255528837411715,1.20898252094536,2.329474649886789,1.4789332208130976,10.836618548682813,0.7700000000000004
78.0,-0.24292608242921443,1.3114878667352992,2.367360517990137,1.5290539607865739,10.34928051437102,0.7800000000000004
79.0,-0.22930368665906037,1.4129113648590608,2.407675451257525,1.5832567743976171,10.590520993656419,0.7900000000000004
80.0,-0.21466856050049843,1.5140215949229758,2.4467157688656833,1.6396880731970063,10.229543045800929,0.8000000000000004
81.0,-0.19902809636212995,1.6139789824005,2.4880607751419186,1.7001220318906256,10.328993731349987,0.8100000000000004
82.0,-0.1823896202197089,1.7136119554295208,2.528374613006925,1.7627347235828725,10.107122068161132,0.8200000000000004
83.0,-0.16477527933447011,1.7928380605420315,2.570584448613353,1.8134710793377147,4.579118050017967,0.8300000000000004
84.0,-0.1468597088659151,1.7738493028339206,2.6116120539036234,1.7818540467405717,-10.066987456947622,0.8400000000000004
85.0,-0.12961541816817684,1.674733314763302,2.6529900757448046,1.6830751175628846,-10.232097220551227,0.8500000000000004
86.0,-0.1133688244272032,1.5742990215148844,2.6929994567080078,1.5813793091896615,-10.19715067813726,0.8600000000000004
87.0,-0.09813750593416343,1.4716813272074771,2.7323844362785223,1.4786395808862485,-10.523210289698486,0.8700000000000004
88.0,-0.08393885741471843,1.3677539344742473,2.7703220006291054,1.3731392724232672,-10.34360363760152,0.8800000000000004
89.0,-0.07079056149452198,1.261614334173516,2.8076019172809503,1.2667176491226317,-10.837872341757304,0.8900000000000005
90.0,-0.05871010176643773,1.154177890293157,2.843392971248152,1.1576520533080785,-10.503563266308964,0.9000000000000005
91.0,-0.04771438505203785,1.044672497524048,2.8784840652585757,1.0479188077190087,-11.149195356854506,0.9100000000000005
92.0,-0.03781999801756611,0.9339056334384828,2.9120693892106626,0.9356375841791243,-10.670823788878828,0.9200000000000005
93.0,-0.029042399884482647,0.8213237384318851,2.9448939997385155,0.8230224382312391,-11.43840719292442,0.9300000000000005
94.0,-0.021396649694935613,0.7075320735474369,2.97622619752678,0.7079317795563744,-10.839961611239534,0.9400000000000005
95.0,-0.01489639821836814,0.5922346309361649,3.00671363675297,0.5928647312142089,-11.694306612498558,0.9500000000000005
96.0,-0.00955484375171702,0.47579126673992567,3.035752354953056,0.47537093699119043,-11.006155462452538,0.9600000000000005
97.0,-0.005383729332554166,0.35815806582377724,3.06383863509727,0.3582281194486771,-11.912345441433496,0.9700000000000005
98.0,-0.002394345834886375,0.23945870646276962,3.090438948492679,0.23870815785546354,-11.165517369992672,0.9800000000000005
99.0,-0.0005983035866215258,0.11967476792691534,3.1160211343475535,0.11959327066795886,-12.093396185468924,0.9900000000000005
100.0,2.0325869344006527e-10,0.00014860460901080407,3.136825130370615,-0.00029453914826919783,-11.13315033310052,1.0000000000000004
