node_idx,x,v,theta,omega,force,time
0.0,4.812830950762044e-07,0.009506310223314381,0.020745383143566082,-0.005837243319542597,10.732670009309427,0.0
1.0,0.0006513854139680441,0.12791823388006893,0.02954230173317575,-0.12525455473350752,11.134498497308762,0.01
2.0,0.002596859240791267,0.2529280324143872,0.050639062190474836,-0.24703993810568603,10.712098939951117,0.02
3.0,0.005742274905047237,0.37632828996121465,0.06683113913697546,-0.37199099600893754,10.992269023557915,0.03
4.0,0.010363253636110438,0.4977824248086425,0.08561656766430996,-0.4880647578904904,10.54592696149475,0.04
5.0,0.016747981776656592,0.6203244154398532,0.10220566480217921,-0.6092192839098801,10.784052242897992,0.05
6.0,0.02487637810970029,0.737474987276097,0.1189717586645494,-0.7182412125156797,10.376807590366123,0.06
7.0,0.03352987114881779,0.8546732687885754,0.13361002987919618,-0.832147143782909,10.519561471804288,0.06999999999999999
8.0,0.043215762134906195,0.9629424801366974,0.14857921663743945,-0.9332538976404825,10.219438223462998,0.08
9.0,0.053938167860258394,1.070772320974844,0.16094419026168438,-1.038811974582539,10.245852395256149,0.09
10.0,0.06502092240849854,1.172259623296737,0.1740604100880356,-1.1321504956706157,10.089301308899449,0.1
11.0,0.07733386561584263,1.2914645331863437,0.18408548172321454,-1.2463545810652865,10.043227070014199,0.11
12.0,0.09028632987489427,1.3062472945126058,0.1947321333462244,-1.2508721470595574,-10.01475744369252,0.12000000000000001
13.0,0.10271259769533454,1.204130040511569,0.20259331359700877,-1.1442025777011664,-10.353559120287553,0.13
14.0,0.11403599406692604,1.0944773035323994,0.2173139394947245,-1.0255369533390446,-10.236187542651047,0.14
15.0,0.12411043171121273,0.9850397168247857,0.22731507110547342,-0.9110697849371772,-10.626618786779913,0.15000000000000002
16.0,0.13314662592561513,0.8700310979000722,0.2450699354622957,-0.7873646725125574,-10.366249380446451,0.16
17.0,0.14108824957336338,0.7554828245369029,0.2571401609183784,-0.6683888116943564,-10.779136009648457,0.17
18.0,0.14831669287193322,0.636652455922061,0.27791031938238847,-0.5426747796895852,-10.458899343834839,0.18
19.0,0.15445028333242805,0.5185040886062194,0.2920740292386635,-0.4219609379888906,-10.861498730492615,0.19
20.0,0.1591708286588525,0.3980075571499485,0.3158258825199724,-0.2965616691608989,-10.519301136160209,0.19999999999999998
21.0,0.16278908212352547,0.277698999411912,0.3321277199143321,-0.1763774005478953,-10.901664128194515,0.21
22.0,0.16488622489670093,0.15792629113471224,0.3587762254461551,-0.05318050396698965,-10.55264001948423,0.21999999999999997
23.0,0.16579595156428645,0.0385175059295476,0.37721102480128854,0.06458070074442328,-10.914265107917332,0.22999999999999998
24.0,0.16544286042437664,-0.08007329485367454,0.4066497500238225,0.183935838472683,-10.56324122650749,0.23999999999999996
25.0,0.1639142571674496,-0.1983889575980672,0.4271664001851119,0.2976159783628425,-10.90614917264112,0.24999999999999997
26.0,0.16139773820632855,-0.3165591579076899,0.4592966843969887,0.4116391166355519,-10.554244235094806,0.25999999999999995
27.0,0.15767024412680986,-0.43429399776386723,0.4818541323557819,0.5197319490291386,-10.87961021683161,0.26999999999999996
28.0,0.15281040621237935,-0.550256629603146,0.5165385097467136,0.6270381795125494,-10.527792820256485,0.27999999999999997
29.0,0.14679317717946855,-0.665836638850382,0.541099518119013,0.7281569255323047,-10.834082600732254,0.29
30.0,0.13943926599752185,-0.778006477720053,0.5781302280730792,0.8274583262500621,-10.485496616289236,0.3
31.0,0.13112103844053222,-0.8899027213473664,0.6046125984899641,0.92033565587355,-10.767194515090793,0.31
32.0,0.12139490569545518,-0.9996631856172593,0.6437562605462266,1.0104714757951045,-10.429044015035362,0.32
33.0,0.11048891275217083,-1.109440500816648,0.67205321005385,1.0939851677309111,-10.675934674955018,0.33
34.0,0.09863229318130087,-1.2167392979553584,0.7130706601510994,1.1739829468458913,-10.360753448955712,0.34
35.0,0.08588672562263375,-1.3231980204416804,0.7431039519405864,1.2472171788321205,-10.558718149612492,0.35000000000000003
36.0,0.07212008506049239,-1.425471594387937,0.7856726500329061,1.3163626266771267,-10.284270351413074,0.36000000000000004
37.0,0.056923463172629835,-1.5271053737539273,0.8172990457084482,1.3786939737723454,-10.418958543979945,0.37000000000000005
38.0,0.04100344059293363,-1.6246691169942697,0.8611081595366719,1.4366410791582467,-10.20487958888036,0.38000000000000006
39.0,0.0243624944287999,-1.7220089203748172,0.8941494451508011,1.487834752439031,-10.268803336830082,0.39000000000000007
40.0,0.0070691583076049665,-1.8152155359419835,0.9389841317110836,1.5347004673292086,-10.129383541159797,0.4000000000000001
41.0,-0.011303827634329796,-1.908231617506155,0.9732085051670136,1.5749801008033584,-10.131578231525287,0.4100000000000001
42.0,-0.030730545801372317,-1.9976154549703455,1.0194150351016615,1.6113959700617406,-10.065080467752738,0.4200000000000001
43.0,-0.05087285441647984,-2.0872329699633276,1.0545130977467836,1.6414162791679852,-10.036983996942892,0.4300000000000001
44.0,-0.0716300589968884,-2.17412834370247,1.1048989386691366,1.668366488627255,-10.020932944444613,0.4400000000000001
45.0,-0.0928639840449666,-2.1926093330658807,1.1534952997471348,1.6596872851276003,3.813064388511356,0.4500000000000001
46.0,-0.11434672624638889,-2.1134569254528945,1.1964989466472105,1.6129967809555517,10.14406597027216,0.46000000000000013
47.0,-0.13509384511168374,-2.010577672120608,1.242782520594343,1.5592414013825218,10.418584574280368,0.47000000000000014
48.0,-0.15504238921394267,-1.9030529551569246,1.2796047977556404,1.5080250859198596,10.232451934569854,0.48000000000000015
49.0,-0.1739969741537199,-1.796675702693836,1.3229718883212462,1.459660499375833,10.537290867421975,0.49000000000000016
50.0,-0.19114906299870751,-1.6891624893213035,1.3582580886745637,1.41415552520249,10.29589450473941,0.5000000000000001
51.0,-0.20713675112422048,-1.5826400855036409,1.4003674704643718,1.3719012120699816,10.619125532815266,0.5100000000000001
52.0,-0.2218343065502048,-1.4759120198791287,1.4342138947666816,1.3325695290494073,10.342246501959865,0.5200000000000001
53.0,-0.2353985772344301,-1.3700316184991217,1.475563939892496,1.296856336659064,10.676613909924868,0.5300000000000001
54.0,-0.24842965680016488,-1.2629343874879337,1.5084005401825546,1.2640045185524797,10.375237384586951,0.5400000000000001
55.0,-0.2605175178111612,-1.1564913617480697,1.5494295565010143,1.2351586292947563,10.715711820063271,0.5500000000000002
56.0,-0.2716973129709341,-1.0478854080522475,1.5814154166644443,1.2090113403326974,10.396935231791959,0.5600000000000002
57.0,-0.2816302163294894,-0.9401218433596445,1.62209631093848,1.1872343054580832,10.739995186358081,0.5700000000000002
58.0,-0.29038902183254267,-0.831589431276199,1.6532827167582584,1.1678867038939371,10.408766404133955,0.5800000000000002
59.0,-0.2981328791799065,-0.724003172249086,1.6936740316423522,1.1532715401976,10.751608809909044,0.5900000000000002
60.0,-0.3048579933233285,-0.6161525894732558,1.724372312723759,1.140765894937366,10.411776119471565,0.6000000000000002
61.0,-0.3105213424745097,-0.5083809919738231,1.7647448067207099,1.1333683361924742,10.751859977076963,0.6100000000000002
62.0,-0.31504111817812414,-0.3998372060531102,1.7951153957795694,1.1277414889625024,10.40677098214564,0.6200000000000002
63.0,-0.3184272414781633,-0.2920207226692985,1.8354364285598899,1.12760205374162,10.741336353460639,0.6300000000000002
64.0,-0.32067425260141585,-0.18410541763843058,1.8654389628904495,1.1288209061676981,10.394404816445107,0.6400000000000002
65.0,-0.3218344568978584,-0.07643368139439262,1.9057089767439122,1.135889643326652,10.720208994533024,0.6500000000000002
66.0,-0.3220578223415097,0.03157662774887806,1.935744219191586,1.1438919868019437,10.375249798521738,0.6600000000000003
67.0,-0.321257722236118,0.13945385658043116,1.9762158666095744,1.158135302537966,10.688259970521221,0.6700000000000003
68.0,-0.3194371386731082,0.2468794978349984,2.0065286598649448,1.1728777605719645,10.34981009022855,0.6800000000000003
69.0,-0.3165054025543,0.35413701480756105,2.0473521804993142,1.1942765137987756,10.64503170623656,0.6900000000000003
70.0,-0.31244233898624774,0.4604967835106604,2.078003544329349,1.2157117489327454,10.318606967953075,0.7000000000000003
71.0,-0.30733388596619315,0.5670413098259832,2.119051788565804,1.244190240358821,10.58997992972717,0.7100000000000003
72.0,-0.3011391435516229,0.6722699179225106,2.1501571725038193,1.2721847614419377,10.28214084633777,0.7200000000000003
73.0,-0.2938759763660728,0.7773453208376827,2.191567603830117,1.3076089571530123,10.522615065836032,0.7300000000000003
74.0,-0.2855458651721317,0.881044286890287,2.2234559142546617,1.3420665579940358,10.241114117002109,0.7400000000000003
75.0,-0.27618431657912823,0.9851316290733757,2.265306636112329,1.3843456005431203,10.442746673236334,0.7500000000000003
76.0,-0.2658054729035002,1.088105417456196,2.298065231278426,1.4251379329537455,10.196250409199923,0.7600000000000003
77.0,-0.25440008380777934,1.1912175055023617,2.340369846107195,1.4741115295053608,10.350805077499206,0.7700000000000004
78.0,-0.24198100927829078,1.2927583783256213,2.3742957661320827,1.5210966705091205,10.148615264068736,0.7800000000000004
79.0,-0.2285351574076627,1.3946441267613565,2.4172823948601763,1.5766252798239,10.24858672707333,0.7900000000000004
80.0,-0.21407996578374033,1.4948708140477742,2.4525539882949103,1.6297835911022993,10.10036502537228,0.8000000000000004
81.0,-0.1986256905061897,1.595537870944355,2.4963351266443308,1.6917903232910112,10.140939878701026,0.8100000000000004
82.0,-0.18217541352881308,1.6945175231013798,2.5321470047345627,1.7512454412878413,10.057816863134203,0.8200000000000004
83.0,-0.16470176900308128,1.7833016859767894,2.575178642703001,1.8108462516510346,5.855766533155672,0.8300000000000004
84.0,-0.1468313156241734,1.7719813793779493,2.611380777354512,1.7830882920518274,-10.0386496261886,0.8400000000000004
85.0,-0.12959028667245984,1.6738774594387549,2.6514517346862414,1.6864409457460414,-10.09920754439535,0.8500000000000004
86.0,-0.11334570829038736,1.5724083771772277,2.6910970413075135,1.5812221549423728,-10.085767369903861,0.8600000000000004
87.0,-0.09811701585696192,1.4707591367610218,2.7307844281949367,1.481101065995599,-10.21927098108537,0.8700000000000004
88.0,-0.08392056263995809,1.365734537105542,2.768114706607648,1.3718897924033266,-10.145345862642491,0.8800000000000004
89.0,-0.07077482061066269,1.260650283992176,2.8058989501134386,1.2683208376267132,-10.35018012691136,0.8900000000000005
90.0,-0.058696524847357566,1.1521186291936787,2.8409442656273147,1.155455358526995,-10.21145336700042,0.9000000000000005
91.0,-0.04770303340595067,1.043712220461221,2.8763864661630656,1.0486877277723858,-10.479926194649206,0.9100000000000005
92.0,-0.037810673523083545,0.9319079184028803,2.9091670555980236,0.9326025027922709,-10.28095315719074,0.9200000000000005
93.0,-0.029034848551658127,0.8204072444226749,2.942080203256116,0.8229741913635079,-10.600562541060334,0.9300000000000005
94.0,-0.021391162247635504,0.7056967056070039,2.9725375755568932,0.7041796960527286,-10.35135808187564,0.9400000000000005
95.0,-0.014892134307149703,0.5914149199085765,3.0028114823685756,0.5920444611125029,-10.70732964176734,0.9500000000000005
96.0,-0.009553824866350168,0.47437063147456254,3.0304280426237034,0.47126643953711217,-10.420593075627364,0.9600000000000005
97.0,-0.00538313220951784,0.3576426431953772,3.058036641428958,0.35691477864056237,-10.798328046621595,0.9700000000000005
98.0,-0.0023998696839110174,0.23968648255370406,3.0805092058058525,0.23588811852159441,-10.487018899369087,0.9800000000000005
99.0,-0.0006020997125759354,0.12068882900263292,3.104932791968527,0.11931765099881746,-10.873846832460169,0.9900000000000005
100.0,9.551962222874325e-06,0.007033702123701676,3.116952836499141,0.0036513762912421593,-10.473955223484866,1.0000000000000004
