node_idx,x,v,theta,omega,force,time
0.0,-8.331902816136256e-10,0.000131311619564644,0.0037656371283423303,0.00023620702380833564,11.795719133745322,0.0
1.0,0.0006338395666050553,0.12670629673552183,0.023292557093001633,-0.12650410079536284,12.78228785692561,0.01
2.0,0.0025333657540879953,0.2530553309206527,0.045300016492860654,-0.2520948794544156,11.745645602101822,0.02
3.0,0.005687909303551958,0.3773747425556872,0.06582001234908802,-0.3763275548859711,12.433299948521373,0.03
4.0,0.010073592477169102,0.4992662339760443,0.08537336059961644,-0.49655958469061473,11.337862105148004,0.04
5.0,0.015663990312044285,0.6182831917014514,0.10354651540477793,-0.6142942541393382,11.9225514843527,0.05
6.0,0.022432078857876795,0.7348016972830645,0.12080346365697671,-0.7276975726907505,10.922796816714365,0.06
7.0,0.03034566121474469,0.8474318914915852,0.1366642205713209,-0.8373615351906082,11.273817951032479,0.06999999999999999
8.0,0.039373805349488214,0.9577196160163449,0.1517774107122844,-0.9426833538535621,10.53625387269534,0.08
9.0,0.04948384176062909,1.0638741819706055,0.16548605481731224,-1.0438590583222573,10.602257170649684,0.09
10.0,0.060645537264279396,1.1680650007738969,0.17861917009355224,-1.1409766607428653,10.214995136965488,0.1
11.0,0.07298644212644145,1.284506703099635,0.19017815567699067,-1.2498902702623604,10.102604818527277,0.11
12.0,0.08602568252070993,1.3077334032964605,0.2015402506858573,-1.26533408593671,-8.432403870864498,0.12000000000000001
13.0,0.09861722499658233,1.2086736215832201,0.21277073432728413,-1.1610154794843481,-10.860597854127954,0.13
14.0,0.1101632518312799,1.0986489544059304,0.2260228280619405,-1.0445171927278956,-10.57319767944186,0.14
15.0,0.12058842997558661,0.9860360777710224,0.23946802191633015,-0.9261008724391688,-11.533474451100421,0.15000000000000002
16.0,0.12987852444845266,0.8716532891618431,0.2551895187466815,-0.8049625459739597,-10.894726048882733,0.16
17.0,0.13801423408629748,0.7552535386184709,0.27097068514119976,-0.6828666803029334,-11.908071389139126,0.17
18.0,0.14498003598564052,0.6376881261680168,0.2892211856072148,-0.5591130293736434,-11.12265695798206,0.18
19.0,0.15076532441695575,0.5192366692202233,0.3073914715986648,-0.43592168875129017,-12.110196337384112,0.19
20.0,0.155362833717824,0.40014502182059775,0.3281917465866529,-0.3120690031029134,-11.271105319422634,0.19999999999999998
21.0,0.15876798789543628,0.28083623518317546,0.34875603458480336,-0.1898505277346126,-12.208773985842669,0.21
22.0,0.1609790652879079,0.16134002317469,0.3720846242162098,-0.06789481476938154,-11.35304733429134,0.21999999999999997
23.0,0.16199594387921412,0.04206311475776295,0.3950093452020124,0.05158376133373058,-12.239722202568615,0.22999999999999998
24.0,0.1618210326724032,-0.07700887858701823,0.4208087051862795,0.1699445989285329,-11.379144588260608,0.23999999999999996
25.0,0.1604578816181141,-0.19552845586949233,0.44602813915136524,0.28509658162536844,-12.219798880730837,0.24999999999999997
26.0,0.1579122481044727,-0.3134968442531757,0.4742078147864249,0.3983400533139966,-11.357110324602909,0.25999999999999995
27.0,0.15419093194542224,-0.43061306126986076,0.5016282338965916,0.5076983293663202,-12.1546804854107,0.26999999999999996
28.0,0.14930271755052105,-0.5468679017067958,0.5320664999872191,0.6144220800391176,-11.292239006907009,0.27999999999999997
29.0,0.14325753639947408,-0.6619634155954286,0.5615692779866243,0.7166174810367206,-12.043034160681641,0.29
30.0,0.13606704654796983,-0.7759206695029119,0.5941141916775957,0.8155257224615676,-11.188504193841055,0.3
31.0,0.12774428401676818,-0.8883800452712718,0.625558562339751,0.9092952058730739,-11.8789970739808,0.31
32.0,0.11830376128635511,-0.9994632142811196,0.660029161328123,0.9992147791265992,-11.049993187040004,0.32
33.0,0.10776162038430154,-1.10867345907318,0.6932550508723796,1.0834395498947915,-11.655122412486092,0.33
34.0,0.09613513721794197,-1.2163219806460221,0.7294435160873164,1.16336306822324,-10.882402273431314,0.34
35.0,0.0834433653103387,-1.3217136973357793,0.764274673827951,1.2371395845073334,-11.36763853352012,0.35000000000000003
36.0,0.06970599970003154,-1.425431647847098,0.8019504219320168,1.306297581331894,-10.694700040090721,0.36000000000000004
37.0,0.054944302702396614,-1.526579953195183,0.8381981642579228,1.3690394741936758,-11.024842671987047,0.37000000000000005
38.0,0.03917953839190919,-1.6260376658161784,0.8771152247491046,1.4269945925129952,-10.499707079997226,0.38000000000000006
39.0,0.022433657728888466,-1.722820163735955,0.9145833189035353,1.478535934711501,-10.656479033249093,0.39000000000000007
40.0,0.0047279000799207585,-1.8180082982533659,0.9544910541068673,1.525275348498445,-10.313961363308747,0.4000000000000001
41.0,-0.013917550904263437,-1.9107925796523555,0.9929830887213699,1.5659385578985134,-10.319655699022213,0.4100000000000001
42.0,-0.03348392128560508,-2.0021902494461736,1.033641005870712,1.6019219400565599,-10.154803397837664,0.4200000000000001
43.0,-0.053955652790255604,-2.091915348040536,1.072980972513076,1.6324682423572203,-10.086544502775947,0.4300000000000001
44.0,-0.07531922806481896,-2.1805514345408143,1.1142020946648763,1.6585848104166294,-10.038692666141626,0.4400000000000001
45.0,-0.09724091083994013,-2.1880272300155896,1.155581493159572,1.6470128635191137,5.60875099615923,0.4500000000000001
46.0,-0.11876660850197443,-2.1013428862927124,1.1958453107677933,1.5970223557465237,10.337595950027188,0.46000000000000013
47.0,-0.13926205806940659,-1.997528590520096,1.2361152949855703,1.5436356621286502,11.023828966730454,0.47000000000000014
48.0,-0.15871502989841693,-1.8928541307313034,1.2746498330693405,1.4929501712260262,10.56520052844501,0.48000000000000015
49.0,-0.17711551655643074,-1.7870814109798472,1.3139678397812737,1.4450764402760292,11.316335917323077,0.49000000000000016
50.0,-0.19445551797533578,-1.6807601422480243,1.351425473372805,1.4000910035741774,10.722462975426604,0.5000000000000001
51.0,-0.21072895215638665,-1.5737972532557645,1.3899183155582788,1.3583594631913787,11.517417070220986,0.5100000000000001
52.0,-0.2259308318515591,-1.4664524837354482,1.4264482433541434,1.3196280343943483,10.836783950260369,0.5200000000000001
53.0,-0.24005732877294914,-1.3587377290279956,1.4642295819560165,1.28444275521609,11.658484955390875,0.5300000000000001
54.0,-0.2531053244894717,-1.2507559628731297,1.499979298778333,1.2523149771548066,10.917938125544536,0.5400000000000001
55.0,-0.26507249546752903,-1.1425859968350882,1.5371701641923456,1.223935802947458,11.754329637145668,0.5500000000000002
56.0,-0.27595704840278834,-1.0342367439418352,1.5722888199729734,1.198630424711906,10.97126410906304,0.5600000000000002
57.0,-0.28575775660846847,-0.9258285472390166,1.6090154649825408,1.1772178930102761,11.813732580073234,0.5700000000000002
58.0,-0.2944738177602027,-0.8173124882003325,1.643653602699717,1.1588648210732906,11.000296036960885,0.5800000000000002
59.0,-0.30210486968531314,-0.708836009433802,1.6800454098849023,1.1445096843903106,11.842075923141083,0.5900000000000002
60.0,-0.30865089297693205,-0.6003127028695828,1.7143543837257194,1.1331774304008746,11.007617040760353,0.6000000000000002
61.0,-0.31411225301908424,-0.4919113982845323,1.750542326107481,1.1259206076540575,11.84248712054886,0.6100000000000002
62.0,-0.31848960286886946,-0.3835174149370541,1.7846738247180516,1.1216346642979569,10.995227773816413,0.6200000000000002
63.0,-0.3217839702984513,-0.27532199520255557,1.8207893284142085,1.1214806443930774,11.816492192046727,0.6300000000000002
64.0,-0.3239966291335256,-0.16718323638372035,1.8548949862682762,1.1242356748588485,10.964746548031172,0.6400000000000002
65.0,-0.32512925148880734,-0.05932133030095704,1.891069136983474,1.1311611853161092,11.764440504902725,0.6500000000000002
66.0,-0.32518372464656636,0.04843832923816598,1.925300235758202,1.1409287613241257,10.917556123903731,0.6600000000000003
67.0,-0.32416238577072076,0.15583553317920237,1.9616631986255868,1.1548878972480672,11.685821624233435,0.6700000000000003
68.0,-0.3220677523286569,0.2630883188269518,1.996170358589831,1.1716208705475455,10.854916074725312,0.6800000000000003
69.0,-0.31890286304978294,0.3698816623082099,2.032850965411145,1.1925475446426423,11.579549045408255,0.6900000000000003
70.0,-0.3146709088420039,0.47649184782070214,2.067783787996912,1.2161817447191978,10.778030392066283,0.7000000000000003
71.0,-0.30937568319188524,0.5825317388668391,2.104909260597242,1.243990111487584,11.444261382390627,0.7100000000000003
72.0,-0.3030210984871076,0.6883538136060406,2.140415943216973,1.2744441577054504,10.688199094077971,0.7200000000000003
73.0,-0.29561175309551657,0.7934804006759572,2.178111646987409,1.3090280668999947,11.27871862230938,0.7300000000000003
74.0,-0.2871523288728154,0.8983595102607099,2.2143384413120066,1.3462020291245134,10.58692381712133,0.7400000000000003
75.0,-0.27764826332675785,1.0024063614359535,2.252727741823789,1.387434801914872,11.082368021223285,0.7500000000000003
76.0,-0.2671050362052822,1.1061817305256438,2.2898183503591136,1.4312089576771998,10.475932272715857,0.7600000000000003
77.0,-0.25552891243915116,1.208984455368232,2.3290224179739956,1.4789458131552742,10.856224259550523,0.7700000000000004
78.0,-0.24292615286752733,1.31149900053838,2.3671173139042745,1.5291828776092253,10.357467555273603,0.7800000000000004
79.0,-0.22930374891432576,1.4129139410731335,2.4072548182012703,1.5832717188258252,10.604353476952193,0.7900000000000004
80.0,-0.2146686159059167,1.514035415069924,2.4464907528069415,1.6398269494645212,10.234924995637122,0.8000000000000004
81.0,-0.19902814301809965,1.6139821970453077,2.4876765025087653,1.7001393897939052,10.336694439909278,0.8100000000000004
82.0,-0.1823896585473606,1.7136287992737418,2.5281782943521405,1.7628819506871236,10.109651710745045,0.8200000000000004
83.0,-0.16477530734090234,1.7928419001020746,2.570321847271875,1.813490596076839,4.5792894756314775,0.8300000000000004
84.0,-0.1468597307021294,1.7738668006901128,2.611561473137267,1.7820078190326132,-10.068595955234521,0.8400000000000004
85.0,-0.12961543550940707,1.67473691436923,2.6529197859482885,1.683096978324849,-10.237569232969502,0.8500000000000004
86.0,-0.11336883960369434,1.5743188816134743,2.692953251115655,1.5815436856683613,-10.201793727410948,0.8600000000000004
87.0,-0.09813751788290499,1.4716853489076231,2.732301295878128,1.4786642357648254,-10.535506312630861,0.8700000000000004
88.0,-0.08393886797182668,1.3677762366241657,2.7702712668104854,1.373312181875342,-10.35167750726775,0.8800000000000004
89.0,-0.07079056953604157,1.2616187836450632,2.807513311966499,1.2667447887072942,-10.857547624197306,0.8900000000000005
90.0,-0.05871010885414807,1.1542018465604533,2.8433416718618134,1.1578319555348713,-10.51538693283663,0.9000000000000005
91.0,-0.04771439022385634,1.044677298539781,2.878397770608105,1.0479479727539585,-11.176172681484585,0.9100000000000005
92.0,-0.037820002506084534,0.9339304773778394,2.912022019418563,0.9358227627119544,-10.686569338420261,0.9200000000000005
93.0,-0.029042402958420387,0.8213287985628424,2.9448178451298905,0.8230531345333483,-11.472168414838567,0.9300000000000005
94.0,-0.021396652243714676,0.7075571649973124,2.9761872324937384,0.708120543404247,-10.859673563039221,0.9400000000000005
95.0,-0.014896399790640414,0.5922398493447718,3.006655265538654,0.5928964620134838,-11.734070427268138,0.9500000000000005
96.0,-0.009554844350198283,0.47581598834521605,3.035727555735316,0.47556129559603355,-11.029765099504898,0.9600000000000005
97.0,-0.005383729379688599,0.3581632615404648,3.063806423442047,0.35826016713640585,-11.957223580347458,0.9700000000000005
98.0,-0.002394335459423857,0.23947867950854326,3.090482938044377,0.23888815328272386,-11.192864727320872,0.9800000000000005
99.0,-0.0005982927398373,0.11967650230149018,3.1161008655962847,0.11961757925536305,-12.142520977805649,0.9900000000000005
100.0,-4.065635914631961e-09,8.521817648200584e-05,3.137740725027025,-0.00026514334981159947,-11.159738240350459,1.0000000000000004
