node_idx,x,v,theta,omega,force,time
0.0,4.3381586027979955e-06,0.01188747145370181,0.02241521182809245,-0.007535511268813227,10.593432419380019,0.0
1.0,0.0006635657864751416,0.1286739339991925,0.03143022345426342,-0.1253135986344657,10.918846036717913,0.01
2.0,0.0027095848799655237,0.25328242089362635,0.05201601692293447,-0.24647758284575286,10.576784159949677,0.02
3.0,0.005831735790180515,0.37612866481948565,0.06760015957923758,-0.3708277371101724,10.803676673242265,0.03
4.0,0.011530653899419253,0.49612860817817245,0.0860926315109657,-0.4863266706687063,10.442203812951005,0.04
5.0,0.019652141872604497,0.6153083612830704,0.10229099304240108,-0.607667099046294,10.635013007563554,0.05
6.0,0.02916252109321412,0.7286409112390303,0.11883595660056699,-0.7160794073430974,10.305243770272767,0.06
7.0,0.03791585534280004,0.8452077240465381,0.13325610885610795,-0.8305145598651309,10.420795290215592,0.06999999999999999
8.0,0.04665941572170797,0.9531067579735272,0.14803363539716327,-0.931046815284025,10.177815361456037,0.08
9.0,0.05730363339806776,1.0620031132966354,0.16019870934462146,-1.0372430792109788,10.19910509344383,0.09
10.0,0.06832144959169813,1.1637776970493656,0.17310476051136006,-1.1300505581926177,10.072526808207243,0.1
11.0,0.08026124163663843,1.2844117212141963,0.18290550945757622,-1.2449176625235812,10.035128329262736,0.11
12.0,0.09274274886606611,1.2993043347533273,0.19323197358349953,-1.2483300755592204,-10.105129801874716,0.12000000000000001
13.0,0.10506265473346221,1.197855073897072,0.20060861387453688,-1.1418445741459813,-10.286831134842913,0.13
14.0,0.11646366195138538,1.0885132703394205,0.2152804024977131,-1.0228421855998282,-10.191683825165383,0.14
15.0,0.1267308308702443,0.9804573676513619,0.22480889133340684,-0.9090105920333781,-10.507806878605809,0.15000000000000002
16.0,0.13578185441288887,0.8659359804792569,0.24260321626706854,-0.7850554368768077,-10.296894327243484,0.16
17.0,0.14329435064390703,0.7526652689510505,0.2542097660342124,-0.6665525584435017,-10.631327489191438,0.17
18.0,0.14989896559798888,0.6342504491621955,0.2750924191263281,-0.5406975620089047,-10.371904268786857,0.18
19.0,0.15537166014667816,0.516687001179195,0.28879578366455566,-0.4203053675640076,-10.69804043814398,0.19
20.0,0.1594205610624394,0.396516662675194,0.31271773011754733,-0.2948367852247007,-10.420806289578975,0.19999999999999998
21.0,0.16224010689928883,0.27718905031521074,0.3285672525446273,-0.17486671131797218,-10.730568581488653,0.21
22.0,0.16364798744660738,0.15861517535056147,0.35542411055017015,-0.05165243830509592,-10.447791443262027,0.21999999999999997
23.0,0.16420380514604926,0.04043677372401171,0.37341322849829356,0.0659682123912689,-10.740777217571633,0.22999999999999998
24.0,0.16366186877435812,-0.07713543775760885,0.4030880471698042,0.1852986380901366,-10.456372713304756,0.23999999999999996
25.0,0.16187577571456896,-0.1949437205924313,0.42316217147335317,0.29889190509102703,-10.734208126174588,0.24999999999999997
26.0,0.15919944942273903,-0.31257890868431365,0.4555625276615539,0.4128548430040705,-10.449086884930914,0.25999999999999995
27.0,0.1554704561666241,-0.4295161817047622,0.47769888046587133,0.5209024574003627,-10.712711377771594,0.26999999999999996
28.0,0.15056989305540214,-0.5443420260469672,0.5126744934265601,0.628116407352903,-10.42766409696147,0.27999999999999997
29.0,0.1442971800827876,-0.6594192793172284,0.5368362206745245,0.7292247229243479,-10.675835586845869,0.29
30.0,0.13657811395334218,-0.7709547054767992,0.574180552702439,0.8284049634513305,-10.39340728254092,0.3
31.0,0.12794648872408493,-0.8824000420290525,0.6002943560858212,0.9213034129778612,-10.621654099103978,0.31
32.0,0.11794884630841618,-0.9914633698194769,0.6397683903692484,1.011294981872451,-10.347686243469841,0.32
33.0,0.1068229648226592,-1.1004687064767846,0.6677306586532776,1.0948591469167095,-10.547740372056852,0.33
34.0,0.09492418183951513,-1.2069463598508636,0.7090925404114359,1.1747014055000906,-10.292380413679636,0.34
35.0,0.0822548703259891,-1.313749950404854,0.7388264211566566,1.2480101590481916,-10.452799705794574,0.35000000000000003
36.0,0.06862567078749915,-1.4156238752190593,0.7817548848564351,1.3170072778675148,-10.230437453101386,0.36000000000000004
37.0,0.053674666280408526,-1.5169094992275698,0.8131224662286569,1.3794295610889427,-10.339595670508988,0.37000000000000005
38.0,0.037709828921909286,-1.6130413007353142,0.8573010614317249,1.437259624350282,-10.166146047272663,0.38000000000000006
39.0,0.02042210438654961,-1.709393676466354,0.8901037103443398,1.4885437357798472,-10.217975855324298,0.39000000000000007
40.0,0.0026642701312833616,-1.8015738272941404,0.9353819736728539,1.5353594245070796,-10.105039235157658,0.4000000000000001
41.0,-0.015563490722457508,-1.8948516234452364,0.9693725326303367,1.5757064253222892,-10.106842934547032,0.4100000000000001
42.0,-0.03456003715095357,-1.9843232303792995,1.0163387665724468,1.6121721532470048,-10.053026721942137,0.4200000000000001
43.0,-0.05465799607329421,-2.0738858541091822,1.0512285482053418,1.6422187325672257,-10.030273896176308,0.4300000000000001
44.0,-0.07544007233387477,-2.1598715737839096,1.103272600557942,1.6692550656311247,-10.017660723883857,0.4400000000000001
45.0,-0.09661826704655559,-2.180594223206119,1.1529653625111518,1.6615306682010242,3.3388988096049355,0.4500000000000001
46.0,-0.11824525570024896,-2.102675711656475,1.1972743312662022,1.6157765807732059,10.117375746325195,0.46000000000000013
47.0,-0.139148814471727,-1.9991249053608284,1.2449718320487693,1.5620890203594753,10.339093283770838,0.47000000000000014
48.0,-0.1593241475287279,-1.8904406559574118,1.2820102690139008,1.5108763411736617,10.188499444591894,0.48000000000000015
49.0,-0.17824965224235645,-1.7838210641609265,1.325962143404787,1.462601422584593,10.435176547551064,0.49000000000000016
50.0,-0.19519567984570851,-1.6761463467346502,1.3612402805205135,1.4171441752637226,10.239799845011385,0.5000000000000001
51.0,-0.21119832885814488,-1.5692010716442293,1.4037252211555344,1.3749453535316905,10.501447789195074,0.5100000000000001
52.0,-0.2258799114039653,-1.4620789045492335,1.4376265524398506,1.335683818853265,10.277307615648255,0.5200000000000001
53.0,-0.2395232494136264,-1.3557844553282328,1.479364917393812,1.3000224030007024,10.548020088013281,0.5300000000000001
54.0,-0.2526282138797516,-1.2484812788456097,1.512255670681003,1.2672743812777163,10.304035011909546,0.5400000000000001
55.0,-0.2644964279472524,-1.1426442238462287,1.5534879497659204,1.238492511766885,10.57970154304094,0.5500000000000002
56.0,-0.27541009488369733,-1.0345910913094378,1.5853381327147946,1.212446825246375,10.321596146366895,0.5600000000000002
57.0,-0.28510936539697473,-0.9273336549700764,1.626238082494636,1.1907211475779946,10.599388904952527,0.5700000000000002
58.0,-0.29370249364717127,-0.8187924253551501,1.6573635722119286,1.1714603172036862,10.331188962938786,0.5800000000000002
59.0,-0.30139503272704554,-0.7106492002107342,1.6980710980334235,1.1569109286292356,10.608824205054086,0.5900000000000002
60.0,-0.3081426452245906,-0.602012662277799,1.728782814277186,1.144502784977587,10.3336371731732,0.6000000000000002
61.0,-0.3137858789917268,-0.49401115131461615,1.7695501860421696,1.137209214869145,10.60904891868211,0.6100000000000002
62.0,-0.318157746720293,-0.38559796338805913,1.7998454625022915,1.131702854346896,10.32959691692308,0.6200000000000002
63.0,-0.32130617656710186,-0.27811631976813395,1.8403861635009853,1.131706251725553,10.600547790644956,0.6300000000000002
64.0,-0.323266335208564,-0.1706630156294263,1.8701147948052648,1.1330270202978994,10.319596041416679,0.6400000000000002
65.0,-0.32422099641072577,-0.06337617517191385,1.9105948567599176,1.1402389546687703,10.583464236288062,0.6500000000000002
66.0,-0.3243256284911176,0.04445129625803846,1.9404457029439224,1.1483192937551274,10.304101697003746,0.6600000000000003
67.0,-0.32335833355062643,0.15227931416167667,1.981175588264474,1.162733249320859,10.557617441462723,0.6700000000000003
68.0,-0.3213958437162858,0.2596243906619205,2.0113141073453913,1.1775450503636424,10.283518526936557,0.6800000000000003
69.0,-0.31832700880450293,0.36687755368338926,2.052411767075413,1.1991461692835088,10.522634601803967,0.6900000000000003
70.0,-0.3141216726671915,0.47301064072399324,2.0828512081847346,1.2206344692443143,10.25827015152478,0.7000000000000003
71.0,-0.3088855993248701,0.579579157529358,2.1242251746814005,1.2493562873811237,10.478070268741229,0.7100000000000003
72.0,-0.3025550574623607,0.6845863390894232,2.155109233725623,1.2774012313217604,10.228764184270794,0.7200000000000003
73.0,-0.2951723105478076,0.7898822910817986,2.1967200966208065,1.3131225944406797,10.423530375772033,0.7300000000000003
74.0,-0.28671432181892853,0.8935416674336016,2.22829136414862,1.3476079521561717,10.195589139064731,0.7400000000000003
75.0,-0.2772189883996611,0.9977989946893773,2.2704006151880276,1.3902129048394962,10.358888624564472,0.7500000000000003
76.0,-0.2667045406061762,1.1005950255757935,2.3028960717195175,1.4310208804373303,10.159322285807049,0.7600000000000003
77.0,-0.2551560723533471,1.2037088160931173,2.345339547569031,1.4803824388133737,10.284453858507815,0.7700000000000004
78.0,-0.24259717891134217,1.3049025232280926,2.378894456061804,1.5273745508811503,10.12082061183327,0.7800000000000004
79.0,-0.2290175368598877,1.4068161509035038,2.421978152812287,1.5833314514918717,10.20173493663241,0.7900000000000004
80.0,-0.21443560835323439,1.5068944140160163,2.456839735338968,1.636504011022603,10.081956047409571,0.8000000000000004
81.0,-0.19885767054301196,1.607835082611388,2.5007365730126425,1.6989803854662724,10.1147358906588,0.8100000000000004
82.0,-0.182284438289809,1.7067548058372968,2.536049446175951,1.7584303330449378,10.048636280314813,0.8200000000000004
83.0,-0.1647177070773931,1.7893736059007943,2.579032160412007,1.8130422304703284,4.874343258157881,0.8300000000000004
84.0,-0.14681563544643214,1.771404550002981,2.614879758136969,1.7796836306840709,-10.032745304210215,0.8400000000000004
85.0,-0.12957624565448617,1.6734780145813493,2.6545086160418365,1.6832183697522838,-10.080577351336428,0.8500000000000004
86.0,-0.11333246120814491,1.571754625844291,2.6940992444972056,1.5776709250357945,-10.069904648225547,0.8600000000000004
87.0,-0.09810504135317288,1.470316864882342,2.7336587418075693,1.4779295907175432,-10.177635385085667,0.8700000000000004
88.0,-0.08390970915633225,1.3650336992048313,2.7709089388713273,1.3683948697190125,-10.11794564512719,0.8800000000000004
89.0,-0.0707653515654726,1.2601759986877765,2.8086621477400917,1.26530141635577,-10.283616713474345,0.8900000000000005
90.0,-0.058688366645119776,1.1514009387057214,2.8436007177253138,1.15214230473512,-10.17140978183554,0.9000000000000005
91.0,-0.047696231264533796,1.0432345807887198,2.8789934822146757,1.0459030613616669,-10.38869454567289,0.9100000000000005
92.0,-0.037805277126649384,0.9312167525472277,2.911644893122233,0.9295761181767841,-10.227663460758576,0.9200000000000005
93.0,-0.029030624584007514,0.8199566256959677,2.9444574430901214,0.8205013457327699,-10.486410176956603,0.9300000000000005
94.0,-0.02138856785720786,0.7050907496067038,2.974729474818352,0.7015598262782013,-10.284669566190667,0.9400000000000005
95.0,-0.014890392051147764,0.591036691024515,3.0048481745318494,0.5899813468435752,-10.572898758752237,0.9500000000000005
96.0,-0.009554521799611526,0.47399658876376627,3.032107050173504,0.46928400143372373,-10.340736188422513,0.9600000000000005
97.0,-0.00538412266776299,0.3574788479709288,3.0594895918310505,0.3554811502509925,-10.646613063385326,0.9700000000000005
98.0,-0.0024037938342203746,0.23998742079988786,3.081394351696208,0.23508722911325572,-10.39452572358897,0.9800000000000005
99.0,-0.0006046451007722626,0.12125895682522973,3.105447146684234,0.11913216440521958,-10.707765442246606,0.9900000000000005
100.0,1.3633682387321037e-05,0.00881472686003802,3.11737227857189,0.004859665174260889,-10.383993432095645,1.0000000000000004
