node_idx,x,v,theta,omega,force,time
0.0,-6.124151451035941e-07,0.0018050954279476878,0.011180307326349816,-0.00046764168229680096,11.415900331564488,0.0
1.0,0.0006344035722245526,0.12674911516108198,0.024255213989857097,-0.1260025523689298,12.193727060492236,0.01
2.0,0.0025340411565561247,0.2528068474342331,0.04633253672147374,-0.2502402422890702,11.376421240151458,0.02
3.0,0.005688016330945811,0.3772515401749195,0.06569912229734248,-0.3755310049327066,11.918562404473493,0.03
4.0,0.010074276139389939,0.49875376113207426,0.08522476578906286,-0.4943121892896353,11.054890637519609,0.04
5.0,0.015663793346384694,0.618174837198542,0.10304356184672872,-0.6134744664250306,11.515847116787,0.05
6.0,0.02243196157307871,0.7342724128191006,0.12038044745635945,-0.7253921272880662,10.727605516243207,0.06
7.0,0.030349987992946723,0.8473544615019916,0.13585617065410988,-0.8365535876771524,11.004320935035478,0.06999999999999999
8.0,0.03938221249416744,0.9571990014387396,0.151166392723419,-0.9404356463630815,10.422798473288193,0.08
9.0,0.04949386971206982,1.063802510078376,0.16439899000015093,-1.0430826238861557,10.474769429779224,0.09
10.0,0.060656367918664175,1.167616591507398,0.17780362192866275,-1.1388905732731556,10.169460474488869,0.1
11.0,0.07299571615082745,1.2844450925022624,0.1888154123328563,-1.2491592417326,10.080746064333315,0.11
12.0,0.08603243509505774,1.307061749915546,0.2002036172127096,-1.2631553522292027,-8.43086990953481,0.12000000000000001
13.0,0.09862175627956236,1.208450053430489,0.21023457782947083,-1.1601420017046344,-10.678796278480542,0.13
14.0,0.11016529183654877,1.0980690852543777,0.22429263372437866,-1.0424602716615443,-10.452091046946494,0.14
15.0,0.12058962734760895,0.9858719900195435,0.23645544809109786,-0.9252961052644967,-11.209365918505263,0.15000000000000002
16.0,0.12987937250908102,0.8712687105817587,0.253175115957178,-0.8031540589361592,-10.705628488680262,0.16
17.0,0.13801750331031784,0.7551182821905205,0.2675248820690766,-0.6821141382844412,-11.504734604996587,0.17
18.0,0.14498584171878387,0.6374235771865481,0.2869486512423702,-0.5574950979416464,-10.885357487439434,0.18
19.0,0.15077123558377958,0.5191174816497159,0.303540449593859,-0.4352158039127331,-11.664112639704049,0.19
20.0,0.15536805264321066,0.3999641186059922,0.3256758859493074,-0.3105977179067993,-11.002412172416546,0.19999999999999998
21.0,0.15876954541712032,0.2807406905743317,0.34452152156382,-0.1891871541725215,-11.741847344080162,0.21
22.0,0.16097690373812992,0.16123645811941717,0.36933876682103767,-0.06654287878065206,-11.067026388441837,0.21999999999999997
23.0,0.16199285261262322,0.04199183612598861,0.39041306466930553,0.05220691456605001,-11.766258475351922,0.22999999999999998
24.0,0.1618174468180455,-0.07705713994864263,0.41784832165268526,0.17119238994309025,-11.087607458841152,0.23999999999999996
25.0,0.16045452629462617,-0.1955860420866675,0.44109712716843386,0.285680176595375,-11.750558375649272,0.24999999999999997
26.0,0.15790894917973541,-0.3135002868411536,0.47105315235105966,0.399490600066985,-11.070237170883495,0.25999999999999995
27.0,0.15418733764746673,-0.43065700118463673,0.4963989495165783,0.5082418693270585,-11.699222133797013,0.26999999999999996
28.0,0.14929859604743273,-0.5468211588236965,0.5287444153061857,0.6154767167696585,-11.019089698933666,0.27999999999999997
29.0,0.14325187456407626,-0.6619915948694481,0.5560904467912177,0.7171199175560192,-11.611198281831141,0.29
30.0,0.13605981482941717,-0.7758238486077564,0.5906590409419914,0.8164826662603242,-10.937297405955563,0.3
31.0,0.12773682440591233,-0.8883946641791642,0.6198925092048915,0.9097556720849979,-11.481863391375008,0.31
32.0,0.11829626710883595,-0.9993152479291313,0.6564824445021595,1.0000720934526581,-10.828082121244032,0.32
33.0,0.10775401138874732,-1.1086779801910733,0.6874766562236667,1.0838581670266072,-11.305344545782807,0.33
34.0,0.09612753295689032,-1.21612708917803,0.7258519549842349,1.1641222083043934,-10.695934245252431,0.34
35.0,0.08343633515693043,-1.3217086644779061,0.7584670611773403,1.2375182196393424,-11.078665543313578,0.35000000000000003
36.0,0.06969948844705845,-1.425192228973155,0.7983624219664289,1.3069670304446532,-10.547924496556927,0.36000000000000004
37.0,0.05493765894411499,-1.526566370406692,0.8324441921433401,1.369382190340331,-10.808365142673239,0.37000000000000005
38.0,0.03917253895272762,-1.6257732461642185,0.8735761976089873,1.4275921023846208,-10.394161383648166,0.38000000000000006
39.0,0.02242512188690761,-1.7227986643902318,0.9089532529981331,1.478849453013569,-10.51789290724794,0.39000000000000007
40.0,0.004717589775604692,-1.8177418762420683,0.9510409769423278,1.5258309002192436,-10.24768548117385,0.4000000000000001
41.0,-0.013930333254676729,-1.9107629130017272,0.9875214980728834,1.5662327128063398,-10.252278252001261,0.4100000000000001
42.0,-0.0334992195210902,-2.0019508561074884,1.030356863301968,1.602485407794738,-10.122171251793903,0.4200000000000001
43.0,-0.05397330948812614,-2.0918798932670124,1.067727225493561,1.6327627433534853,-10.068434787705112,0.4300000000000001
44.0,-0.07533923199268665,-2.1802836598877726,1.1118198368218526,1.6592648470922515,-10.030599284580914,0.4400000000000001
45.0,-0.09726283692804873,-2.187900576118044,1.1561425008919497,1.6472661146146015,5.609795454124399,0.4500000000000001
46.0,-0.11878974753166878,-2.100693356583039,1.1970277083465861,1.5972595836061259,10.266136709654804,0.46000000000000013
47.0,-0.13928445488152322,-1.997359408331533,1.2391615255779487,1.5438068913689398,10.807176348049662,0.47000000000000014
48.0,-0.15873636911462183,-1.8924418261209313,1.2766138516796235,1.493149324762942,10.445622911264854,0.48000000000000015
49.0,-0.17713511580848604,-1.786931469559912,1.31746874797242,1.4452278477369382,11.03784023815878,0.49000000000000016
50.0,-0.19447335022726375,-1.6804097773642281,1.3536699635190363,1.400223774021281,10.569640532488798,0.5000000000000001
51.0,-0.21074586608306428,-1.5736542411539167,1.3937893938154056,1.3584929800276928,11.196414366513693,0.5100000000000001
52.0,-0.2259471141472576,-1.4661378484916752,1.4289075423900173,1.319690463828405,10.659797400411838,0.5200000000000001
53.0,-0.24007306359927458,-1.3586027042744984,1.4684188651665702,1.2845578501277106,11.307669054583098,0.5300000000000001
54.0,-0.25312071020269783,-1.2504767941781922,1.5026218440578663,1.2523015073811097,10.723801676241484,0.5400000000000001
55.0,-0.2650881843234337,-1.1424586784166435,1.5416311921608006,1.2240310118050988,11.383266650589524,0.5500000000000002
56.0,-0.27597287809649806,-1.033983326346172,1.5750874113286402,1.1985356099764957,10.765863214590176,0.5600000000000002
57.0,-0.28577251797988534,-0.9257076308697978,1.6137048627901676,1.1772915697304154,11.430131244779133,0.5700000000000002
58.0,-0.2944873001095159,-0.8170887083835792,1.646582303853388,1.1586837250908943,10.788768797250286,0.5800000000000002
59.0,-0.30211743604699415,-0.7087256413131665,1.6849206893102635,1.1445602584681325,11.452506405793898,0.5900000000000002
60.0,-0.3086626325585098,-0.6001204989098633,1.717387230472412,1.1329057200062762,10.794555190955675,0.6000000000000002
61.0,-0.3141239800130559,-0.49181059654046333,1.755561857768219,1.1259466800373958,11.452857805884245,0.6100000000000002
62.0,-0.3185013536810457,-0.3833538490132167,1.7877863429114753,1.1212685969627758,10.784799764958633,0.6200000000000002
63.0,-0.32179512402438426,-0.27523110970839654,1.8259097372282895,1.1214811938159668,11.432388320076614,0.6300000000000002
64.0,-0.32400709993393784,-0.1670539549332823,1.8580588623914562,1.1237718626372506,10.760778330246369,0.6400000000000002
65.0,-0.32513929989336915,-0.05924052780861071,1.8962450965863593,1.1311350340120117,11.391372999842728,0.6500000000000002
66.0,-0.3251932935532654,0.04853653279215892,1.9284887522615877,1.1403639875762173,10.723580901762842,0.6600000000000003
67.0,-0.32417153715266467,0.15590870978590413,1.966848658331211,1.1548341631146373,11.32940884745382,0.6700000000000003
68.0,-0.32207642755795945,0.2631542111277916,1.999355305221085,1.1709525641784542,10.674200304269105,0.6800000000000003
69.0,-0.3189111002758466,0.3699472728668403,2.0379968216996356,1.1924656733245393,11.245638511820443,0.6900000000000003
70.0,-0.31467861897457533,0.4765235392829414,2.0709347322699627,1.2154077819948446,10.613585489896634,0.7000000000000003
71.0,-0.3093826505157794,0.5825882795106752,2.1099634015050746,1.2438796083782782,11.138987701057632,0.7100000000000003
72.0,-0.30302727514605104,0.6883478807722738,2.143500737091795,1.2735627376697825,10.542761095178518,0.7200000000000003
73.0,-0.29561731410028974,0.7935281063442263,2.1830202703370465,1.308888366017775,11.008477593788125,0.7300000000000003
74.0,-0.2871572544923445,0.8983177452499496,2.2173245754063107,1.3452118514360234,10.462910713982684,0.7400000000000003
75.0,-0.2776527686656556,1.0024462918890706,2.2574361473811106,1.3872655633751059,10.853670951771958,0.7500000000000003
76.0,-0.26710907064257,1.1061036430677043,2.2926722193513336,1.430109954861162,10.375396211225029,0.7600000000000003
77.0,-0.25553234306650235,1.2090157890314102,2.3334748804605083,1.4787469166058285,10.67536616813772,0.7700000000000004
78.0,-0.24292893102630905,1.3113857097762642,2.3698029285728306,1.5279764821930457,10.28198589431504,0.7800000000000004
79.0,-0.22930592090934276,1.4129370788246276,2.411396697994373,1.583043108516052,10.476767522144156,0.7900000000000004
80.0,-0.21467013435706034,1.5138911550868464,2.4489628493334608,1.638519746736927,10.18535679139087,0.8000000000000004
81.0,-0.19902903629488278,1.6139969453123053,2.4914508471503325,1.699882967061725,10.26571017762559,0.8100000000000004
82.0,-0.1823898928726666,1.7134425934334079,2.5302443583484635,1.7615033938911502,10.086571659140489,0.8200000000000004
83.0,-0.1647750991901845,1.7928139956708389,2.5728879041266284,1.8131836383704918,4.574021347014163,0.8300000000000004
84.0,-0.1468593677337486,1.7736209599164718,2.612296822799771,1.7805122799113327,-10.053993947705704,0.8400000000000004
85.0,-0.129615108013309,1.6746730524492606,2.6536425072360648,1.6827228585486542,-10.187143652606862,0.8500000000000004
86.0,-0.11336852166176825,1.574033067663428,2.6934839097603445,1.5798934040938113,-10.159033276855345,0.8600000000000004
87.0,-0.09813725137981799,1.4716122825113043,2.733130221703506,1.4782507940454521,-10.42209296611813,0.8700000000000004
88.0,-0.08393861659129638,1.367457839084678,2.770829066700722,1.3715648141154797,-10.277232138965946,0.8800000000000004
89.0,-0.07079036882266435,1.2615380965658776,2.8083820985563857,1.2662994844675854,-10.676046609076527,0.8900000000000005
90.0,-0.058709927565295014,1.153866544719348,2.843896032320539,1.1560148329042395,-10.406333281265635,0.9000000000000005
91.0,-0.047714252439470965,1.0445916696995357,2.8792252228135102,1.047478559236836,-10.927303307421234,0.9100000000000005
92.0,-0.03781988630273744,0.9335921571578155,2.912522713527521,0.9339612081399877,-10.54132653778508,0.9200000000000005
93.0,-0.02904232116484128,0.8212407238654483,2.945523378240298,0.8225673998671993,-11.160714170149792,0.9300000000000005
94.0,-0.021396595098977067,0.7072266183108582,2.9765817244979855,0.7062380651893998,-10.677834114340227,0.9400000000000005
95.0,-0.014896366508069346,0.5921517831809422,3.0071610070556556,0.5924024595013273,-11.367240909925883,0.9500000000000005
96.0,-0.009554878855194206,0.475507873171153,3.0359067417347014,0.47369500113996665,-10.811964709805444,0.9600000000000005
97.0,-0.005383772246482361,0.35808281057227503,3.0639997092975397,0.35777767272460387,-11.543213842281734,0.9700000000000005
98.0,-0.002394775925486249,0.23931808804510304,3.089563817441859,0.23728023943391077,-10.94057953663263,0.9800000000000005
99.0,-0.000598709490767006,0.11970730467787634,3.1149800206662444,0.11932773009493593,-11.689331784436305,0.9900000000000005
100.0,4.126692863670165e-07,0.0013022971964620378,3.130167130680653,3.21411534401988e-05,-10.914463587032966,1.0000000000000004
