node_idx,x,v,theta,omega,force,time
0.0,-1.0712634364003945e-06,0.002528611872178025,0.012764373082978392,-0.0009186349136362693,11.317424904596654,0.0
1.0,0.0006346279333381329,0.12676327309831859,0.024680584953646344,-0.1258355615141678,12.04237838491944,0.01
2.0,0.0025356513682324847,0.25269023456014417,0.04671691595851148,-0.24971751548233082,11.28107034675989,0.02
3.0,0.005687834325601792,0.37709575119820316,0.06566318717799824,-0.37514011256763785,11.786082279027667,0.03
4.0,0.010162279114732336,0.4984629633553794,0.08512770543363374,-0.49352649518431024,10.98153978990979,0.04
5.0,0.017346864627085942,0.6164176068362726,0.10273730646539149,-0.6130125206959712,11.410989645577729,0.05
6.0,0.025707990265939232,0.730758937774678,0.1199584666203666,-0.7245161055583577,10.676515240690923,0.06
7.0,0.033870902969605605,0.843489101808253,0.13532115981236179,-0.836035646378319,10.934493359806932,0.06999999999999999
8.0,0.043045372074100946,0.9526040877438845,0.15062369309457352,-0.9395111397053654,10.392048508633392,0.08
9.0,0.05360858213805646,1.0591009071688204,0.1637230516319844,-1.0425209534165951,10.440789651166286,0.09
10.0,0.06520868006915305,1.162466988196693,0.17713372568624533,-1.1379563961781958,10.153654190354608,0.1
11.0,0.07751183839039338,1.2811182106001227,0.1879829265080447,-1.2498260099238556,10.069589846113086,0.11
12.0,0.09051577632797364,1.2971785486645309,0.1993234725113708,-1.256832879048354,-10.039855897816416,0.12000000000000001
13.0,0.10334204274869424,1.1923556724475373,0.20913030980513092,-1.1476209365202934,-10.632087227931505,0.13
14.0,0.11509041108484844,1.083437222651317,0.22344157448436883,-1.0309383747483098,-10.419431786480473,0.14
15.0,0.12549024760365055,0.9703554610381729,0.23537697827445744,-0.9141473515497205,-11.124625521017737,0.15000000000000002
16.0,0.13474515024054076,0.8546116531911913,0.25238653042945874,-0.791805886544928,-10.655691022608424,0.16
17.0,0.14295129156697642,0.739326346857213,0.2664782976057676,-0.6710905779569696,-11.40060139318209,0.17
18.0,0.15000816235341818,0.6223607988160386,0.2862342679495097,-0.5463430141888018,-10.82351667828671,0.18
19.0,0.15632636817616352,0.5023534875645151,0.3025364729780001,-0.42436399635520716,-11.548943212255564,0.19
20.0,0.16141856117463588,0.3814284736118457,0.3250401836332079,-0.2996801435246391,-10.932647153548825,0.19999999999999998
21.0,0.16412417532555099,0.2624029038930403,0.3435659209582592,-0.1785600868586274,-11.621604993426471,0.21
22.0,0.16562654040558283,0.14307882491693444,0.3687837316274389,-0.0559017672887844,-10.992753963159698,0.21999999999999997
23.0,0.16693237168628236,0.02461737619423786,0.38951034369563364,0.06255561782268589,-11.644383500472731,0.22999999999999998
24.0,0.16704931828824263,-0.09363324181812331,0.4173750324806667,0.1815083570758242,-11.012081609904069,0.23999999999999996
25.0,0.1648578206318216,-0.21225060020870692,0.4402508480265575,0.29569766974958356,-11.62975436118145,0.24999999999999997
26.0,0.16149180394598886,-0.3302446617035557,0.4706626790022062,0.4094308597533414,-10.995915697288426,0.25999999999999995
27.0,0.15811816727305433,-0.44791339036015415,0.49561396442027533,0.5178756924932834,-11.581950412595875,0.26999999999999996
28.0,0.15357610072390543,-0.5645473042858336,0.5284388770079981,0.6249902036766507,-10.94788923743756,0.27999999999999997
29.0,0.14728481879735206,-0.679877680073597,0.5553742908171735,0.7263176577869614,-11.499967001785947,0.29
30.0,0.13983674192190587,-0.7937811746538924,0.5904418025145038,0.8255228178731944,-10.872141472055102,0.3
31.0,0.13159473410875674,-0.9055632886846652,0.6192546674275694,0.9184769355627664,-11.379594593520306,0.31
32.0,0.12224528849856363,-1.0155813014977315,0.6563579378607788,1.0086003563378076,-10.770324421394646,0.32
33.0,0.11103781769075527,-1.1249006225063167,0.6869283603094545,1.0920656702996223,-11.215171296434153,0.33
34.0,0.09875312913584589,-1.2321909147054106,0.7258251223389766,1.1721057838979727,-10.646784815555915,0.34
35.0,0.08606309432006962,-1.3378517379745802,0.758020004701824,1.2451813335015935,-11.004142754889143,0.35000000000000003
36.0,0.07231998227856258,-1.4412521062163008,0.7984379325539229,1.3143875397042648,-10.509484457964431,0.36000000000000004
37.0,0.057323668657405846,-1.5438065458547094,0.8321094766483514,1.3764873777807243,-10.752400914591368,0.37000000000000005
38.0,0.04131818558426441,-1.6440126795591272,0.8737569036891204,1.4344437765180975,-10.366003979131412,0.38000000000000006
39.0,0.02534662840252149,-1.7419838859408603,0.9087362249290877,1.4853814255449649,-10.480221704538119,0.39000000000000007
40.0,0.008410903414216816,-1.8377059103822,0.9513289685367843,1.53210521578734,-10.228693246995793,0.4000000000000001
41.0,-0.010909861873218967,-1.9309863849092233,0.9874227016415862,1.5721873274019265,-10.233893186194958,0.4100000000000001
42.0,-0.031158843886025266,-2.0222678557407674,1.0307846891940353,1.608211189751518,-10.11284521057346,0.4200000000000001
43.0,-0.051536281082911584,-2.1124783171332524,1.0677643801427443,1.6381652023281905,-10.062392922215347,0.4300000000000001
44.0,-0.07281234787319336,-2.2009831554715844,1.112694015091642,1.664470547964704,-10.018921719197452,0.4400000000000001
45.0,-0.09483029106956625,-2.2008349619788117,1.1576200521457078,1.6489349646995044,6.935050419371171,0.4500000000000001
46.0,-0.11637911300193902,-2.1057577783617614,1.1983384983404564,1.595629810982813,10.232265631945117,0.46000000000000013
47.0,-0.13733941161302474,-2.002785477994327,1.2409353158191294,1.542213968021277,10.743754707184522,0.47000000000000014
48.0,-0.15724712703910892,-1.8978933531686397,1.2781209232039954,1.491555996129135,10.412431980734594,0.48000000000000015
49.0,-0.17511619050877858,-1.7928545217294658,1.3192837253860863,1.4436085768795013,10.965147493972786,0.49000000000000016
50.0,-0.19192394671986387,-1.6866492678968645,1.3552105175556193,1.3985803501689291,10.528386006959575,0.5000000000000001
51.0,-0.2077155390256833,-1.5809789504269118,1.3953974721848574,1.3568196326574609,11.113062899255034,0.5100000000000001
52.0,-0.22245192660868157,-1.4744379539527628,1.4299689227387777,1.317958217562061,10.612869962944426,0.5200000000000001
53.0,-0.23665761410468888,-1.3677185081967476,1.4698229700757548,1.282760644758232,11.21676824409251,0.5300000000000001
54.0,-0.2497942073038358,-1.2603316780814444,1.5037066960951617,1.250413940671725,10.671759605938128,0.5400000000000001
55.0,-0.26173893479252947,-1.15367290312954,1.5429718019948127,1.2220818110960394,11.2874676911848,0.5500000000000002
56.0,-0.2726109312318248,-1.0464626851109857,1.5759810379600456,1.1964672653180157,10.711865831957942,0.5600000000000002
57.0,-0.282661182023908,-0.9371067082265813,1.6149276582647298,1.1751580466417952,11.33105172703983,0.5700000000000002
58.0,-0.291617977902975,-0.8273468555060793,1.6473931647730975,1.1564085633713612,10.733392681401122,0.5800000000000002
59.0,-0.2992668815972091,-0.7197448242795983,1.685921999942362,1.1422144812850996,11.351468401902254,0.5900000000000002
60.0,-0.30583936827520647,-0.6118606309509569,1.7178081832491636,1.1303681219419117,10.73877342819266,0.6000000000000002
61.0,-0.31137433376284657,-0.5034582714177029,1.7564914775779652,1.1233129997566318,11.351758048304522,0.6100000000000002
62.0,-0.31582159091797973,-0.39486401919048275,1.7884311668840818,1.1184225408742388,10.729699132438578,0.6200000000000002
63.0,-0.3191927884085818,-0.2872541024494948,1.8268363939892565,1.118557370838371,11.333208570103677,0.6300000000000002
64.0,-0.32148873231877534,-0.17956596853436163,1.8584511442142493,1.1205955845391975,10.70735046649386,0.6400000000000002
65.0,-0.32280262334172655,-0.07172995177407607,1.8970131539170068,1.127872788893592,11.294939253984323,0.6500000000000002
66.0,-0.3230371088339289,0.03606760542336177,1.928803386674796,1.1368178259114925,10.672597459276087,0.6600000000000003
67.0,-0.32214574888904496,0.14366731027110566,1.967498430444872,1.1512112848499354,11.236606828244335,0.6700000000000003
68.0,-0.32017720577595843,0.25112176739270514,1.9995066295239963,1.1670149737392164,10.626623820643491,0.6800000000000003
69.0,-0.31709914880965523,0.3576786084868098,2.0384532958404793,1.1884386596754977,11.158418900616919,0.6900000000000003
70.0,-0.3129584225666549,0.4639818590467823,2.0708683029662507,1.2110111378779775,10.56941667336618,0.7000000000000003
71.0,-0.30776385502179104,0.5697436138326198,2.1101506392541447,1.2393752496311128,11.05998710148061,0.7100000000000003
72.0,-0.3015126685873873,0.6751554584134468,2.1431254468589596,1.2686287152427722,10.503965636557988,0.7200000000000003
73.0,-0.2942331703442572,0.7801928093176438,2.182892946016894,1.3038268109202311,10.938359810952756,0.7300000000000003
74.0,-0.28590436630763183,0.8847562316999057,2.2166488292006785,1.3396557488465797,10.428135028979757,0.7400000000000003
75.0,-0.2765222449616729,0.9886728848141618,2.257026115292768,1.381559206772084,10.793625060691836,0.7500000000000003
76.0,-0.2661037075580365,1.0920231854778044,2.29176686710726,1.4238514314119741,10.345775887861588,0.7600000000000003
77.0,-0.254656806959142,1.1949554739748223,2.3327907632380955,1.4723255911041877,10.627170957237933,0.7700000000000004
78.0,-0.2421837273122389,1.2972489297566083,2.3686208158313127,1.5209525471382177,10.259729073062532,0.7800000000000004
79.0,-0.2287030069445155,1.3988207972817475,2.410261002607555,1.5758575352383983,10.442357183821507,0.7900000000000004
80.0,-0.2142104378039649,1.499624185596415,2.447200493744963,1.6306363774300991,10.160296657682085,0.8000000000000004
81.0,-0.19871534427167062,1.5998993777719346,2.4901806945156633,1.6917556235039504,10.241962768894382,0.8100000000000004
82.0,-0.18222098692797142,1.6993615251770218,2.5287800214098612,1.752660212797397,10.065159402088593,0.8200000000000004
83.0,-0.16471446779537027,1.7852286338573151,2.5712506511462996,1.8098605903474585,5.575540667616083,0.8300000000000004
84.0,-0.1468401624219092,1.7728772666052057,2.6100464955110816,1.782717382966033,-9.971516019328304,0.8400000000000004
85.0,-0.12960020220459953,1.6743683328625998,2.6513209021812223,1.6853632895728314,-10.168293905576558,0.8500000000000004
86.0,-0.1133559506767164,1.573665216566284,2.6911263817571234,1.5821039381533233,-10.141019841815735,0.8600000000000004
87.0,-0.09812697696695122,1.4713716393792458,2.7308273796557025,1.480644452511062,-10.391413989687212,0.8700000000000004
88.0,-0.08393020835627844,1.3671597837015828,2.76846623484929,1.3735038962781672,-10.254152088878856,0.8800000000000004
89.0,-0.0707835190163388,1.2613605030497232,2.806079574326836,1.2684103631252117,-10.62802065705896,0.8900000000000005
90.0,-0.058704342860586615,1.153618847011249,2.8415200297946277,1.1576346689497916,-10.376637526961995,0.9000000000000005
91.0,-0.04770976703163522,1.0444502262239916,2.8768928064122203,1.0492477986147652,-10.862639832834626,0.9100000000000005
92.0,-0.03781631931237861,0.9333800286722386,2.9101107809433304,0.9352173182716436,-10.501916458479451,0.9200000000000005
93.0,-0.02903949251524011,0.8211353116556002,2.943129925251615,0.8239627862034513,-11.07953550919106,0.9300000000000005
94.0,-0.02139432797182233,0.7070564133743438,2.9741068327720446,0.7071079341068186,-10.629239594981648,0.9400000000000005
95.0,-0.014894507082368863,0.5920761172109122,3.0046744544819006,0.5933874765121127,-11.272561327829866,0.9500000000000005
96.0,-0.009553390777629284,0.4753713965899935,3.033303742366155,0.4741491815747648,-10.755151730235154,0.9600000000000005
97.0,-0.005382527538715631,0.35802835103223857,3.0613603858999867,0.35831939470035956,-11.436130281443077,0.9700000000000005
98.0,-0.0023939752037039023,0.23928610808602557,3.086501559113833,0.23740162505627713,-10.874997690247344,0.9800000000000005
99.0,-0.0005980040631683974,0.11973433701413876,3.1118452451600334,0.11948723066809455,-11.572464797708935,0.9900000000000005
100.0,1.7054436545476614e-06,0.0018350969271525071,3.125848992383208,0.0003090613055414517,-10.848643021202244,1.0000000000000004
