node_idx,x,v,theta,omega,force,time
0.0,-3.4872895405903136e-07,0.001309415530966236,0.00983315767343388,-0.0001819968893092158,11.492540102747842,0.0
1.0,0.0006341826374351138,0.12672451157467898,0.023954524713537893,-0.12610930791600608,12.312495758324248,0.01
2.0,0.002533766881474164,0.25285398651645685,0.04602954496277376,-0.25061109375434387,11.450926218500568,0.02
3.0,0.005687967885669636,0.37728924037139455,0.0656892268381919,-0.3757374406418826,12.022432661249347,0.03
4.0,0.010074296348611315,0.4988921829633944,0.08523532306776632,-0.4948128588259057,11.111987586631308,0.04
5.0,0.01566410585362425,0.6181987976772376,0.10313283249352038,-0.6136917691681607,11.597916092839666,0.05
6.0,0.022432084785564566,0.7343969006845166,0.12047053490465738,-0.7259166837664172,10.766984792965724,0.06
7.0,0.030348041914217503,0.8473566012802282,0.13601909058756073,-0.8367683425072638,11.058699848397946,0.06999999999999999
8.0,0.0393781187047396,0.95731884964221,0.15130593022479324,-0.9409484132388927,10.44567615883624,0.08
9.0,0.04948914234089213,1.063805662642174,0.16462876402739782,-1.043287784838403,10.50048503302553,0.09
10.0,0.06065152994148456,1.1677260565927619,0.17799780658444683,-1.1393636194574157,10.178610901202433,0.1
11.0,0.07299228965931379,1.2844471632851056,0.18911370865623378,-1.2493461942707598,10.08511825078926,0.11
12.0,0.08603080372243811,1.3072640318248494,0.20051490538831743,-1.2636856971008203,-8.422165842708013,0.12000000000000001
13.0,0.0986209302473072,1.20855154954725,0.21078702750383183,-1.160422606928079,-10.715444255151771,0.13
14.0,0.11016526950244604,1.098261941870535,0.22470420663441856,-1.0429819137985303,-10.476489961661139,0.14
15.0,0.12059005080940444,0.9859433273293207,0.2371183134290822,-0.9255505818663402,-11.274758926472275,0.15000000000000002
16.0,0.1298799509898971,0.8713973640489797,0.25365744225730386,-0.8036072753595065,-10.743768436049619,0.16
17.0,0.13801501531647867,0.7551802283082714,0.2682847952949425,-0.6823520084038138,-11.586120693938613,0.17
18.0,0.14498034814229668,0.6375239863477551,0.2874930550201505,-0.5578964779350748,-10.933231335481455,0.18
19.0,0.15076573381738229,0.5191811689271253,0.30438888406218695,-0.43543908753367416,-11.754126866847635,0.19
20.0,0.15536300320331806,0.4000473166587425,0.32627763739430743,-0.3109599262504619,-11.056624500943633,0.19999999999999998
21.0,0.15876663656644058,0.28079762307051775,0.3454520936938676,-0.18939730398699628,-11.836068636158707,0.21
22.0,0.16097610897431558,0.16129194317886697,0.36999392410890286,-0.06687355033409177,-11.124737251682387,0.21999999999999997
23.0,0.1619933432645272,0.042039101399010674,0.39141983447009043,0.05200911999472988,-11.861799582357694,0.22999999999999998
24.0,0.16181898046267149,-0.07701586826513475,0.4185526565173705,0.17088910644442087,-11.146432505021297,0.23999999999999996
25.0,0.16045604910602357,-0.19554241025806915,0.4421732563376085,0.2854945032678958,-11.845247718484876,0.24999999999999997
26.0,0.157910481125068,-0.31347191653535317,0.47180144302850924,0.3992127951532094,-11.128121548409847,0.25999999999999995
27.0,0.15418910134884692,-0.4306177546166631,0.49753575688093143,0.5080684506626815,-11.791130628608773,0.26999999999999996
28.0,0.14930074061726578,-0.5468067695369825,0.5295299876920116,0.6152238656154257,-11.074204727182469,0.27999999999999997
29.0,0.14325477670066547,-0.6619572207099079,0.5572768233144808,0.7169590590012297,-11.698340049877807,0.29
30.0,0.13606347564564014,-0.7758234022207134,0.5914735545059352,0.8162549141890793,-10.987984158346665,0.3
31.0,0.12774041137698716,-0.8883644011706247,0.6211146823392304,0.9096076269044414,-11.562002393661889,0.31
32.0,0.11829967833424936,-0.9993287567097037,0.6573159890592786,0.9998694517359834,-10.872856248150834,0.32
33.0,0.10775809249795448,-1.108650940084838,0.6887185313482941,1.08372289217386,-11.37592700654347,0.33
34.0,0.0961322082864847,-1.2161537679207346,0.7266935333646097,1.163943606041113,-10.733554577079271,0.34
35.0,0.08344140003629211,-1.3216862560168867,0.7597112457742232,1.237395141249794,-11.136976943402457,0.35000000000000003
36.0,0.06970493216672222,-1.4252339790912867,0.7992008299641195,1.306809379303895,-10.577532529444788,0.36000000000000004
37.0,0.054943554153713874,-1.5265504393194165,0.833673859704163,1.3692700672177762,-10.852045430964823,0.37000000000000005
38.0,0.03917904761577338,-1.6258258027496097,0.8744011477690252,1.4274497677918812,-10.415445229537136,0.38000000000000006
39.0,0.02243323414689266,-1.7227900230239734,0.910154603126468,1.4787462566470142,-10.545851635286242,0.39000000000000007
40.0,0.004727463354895315,-1.8177989235562653,0.9518430639692003,1.5256952984783134,-10.261037248447591,0.4000000000000001
41.0,-0.013918361771315767,-1.9107634118270977,0.9886856262143136,1.5661354271669938,-10.2658609990784,0.4100000000000001
42.0,-0.03348517382985071,-2.0020074256904095,1.0311098140585675,1.6023433337997044,-10.128716388661942,0.4200000000000001
43.0,-0.05395651556318094,-2.091890413111772,1.0688381746181206,1.632664942734604,-10.072059921491805,0.4300000000000001
44.0,-0.07531971812101965,-2.1803538572924697,1.1123035878561651,1.6590903095529692,-10.032112617514652,0.4400000000000001
45.0,-0.09724221338705631,-2.187958704870074,1.1560343317663184,1.647188459689218,5.605331080233127,0.4500000000000001
46.0,-0.11876845570036203,-2.1009152471806436,1.1967866745235018,1.5972155375836927,10.280431118068243,0.46000000000000013
47.0,-0.1392633201397605,-1.9974473395087655,1.2385159182709151,1.5437595989837394,10.850865244790981,0.47000000000000014
48.0,-0.15871561372501425,-1.8925917010256166,1.2761544195743366,1.4930997713782541,10.469709005938297,0.48000000000000015
49.0,-0.17711508955095515,-1.7870155278691742,1.3167231766852365,1.4451847510144507,11.094025308361696,0.49000000000000016
50.0,-0.19445407044027643,-1.6805429288601748,1.3531388709246865,1.4001833301985886,10.600451876532215,0.5000000000000001
51.0,-0.2107270968504881,-1.5737391395299571,1.3929654732613226,1.3584541624721675,11.26118247071232,0.5100000000000001
52.0,-0.22592877737502293,-1.466262415530572,1.4283254412169615,1.319661874998521,10.695491730938842,0.5200000000000001
53.0,-0.24005526848997774,-1.3586862479105744,1.4675271401669512,1.2845234146120508,11.37845580107057,0.5300000000000001
54.0,-0.25310337821234663,-1.2505911893870925,1.5019966271097114,1.2522865613284744,10.762960332428188,0.5400000000000001
55.0,-0.2650711608854107,-1.1425398112603167,1.5406813322599742,1.2240012582628037,11.458140473511849,0.5500000000000002
56.0,-0.2759562411793442,-1.0340902184143603,1.5744258587290314,1.19853586744185,10.807296880737765,0.5600000000000002
57.0,-0.28575701460548103,-0.9257860684440966,1.6127056701534042,1.1772669412800398,11.507535934525036,0.5700000000000002
58.0,-0.29447303482983206,-0.8171859686731193,1.6458899844430306,1.1587006434381761,10.831439695443978,0.5800000000000002
59.0,-0.3021038665624982,-0.7087997216566321,1.6838806783318891,1.144541161050439,11.531115754011855,0.5900000000000002
60.0,-0.3086496768977293,-0.6002084932033243,1.7166701954275265,1.1329404822563984,10.837536087323803,0.6000000000000002
61.0,-0.3141112159947327,-0.49188110821847186,1.754489115519142,1.1259334498489881,11.531479229756329,0.6100000000000002
62.0,-0.31848877642596823,-0.38343346585344207,1.7870493316104947,1.121322164764302,10.827248907615958,0.6200000000000002
63.0,-0.321783294734672,-0.2752966923485559,1.8248133185212148,1.1214739402229417,11.509894499366492,0.6300000000000002
64.0,-0.32399604756643496,-0.16712148997167944,1.8573094329218305,1.123845075550853,10.801923212538137,0.6400000000000002
65.0,-0.3251286482044457,-0.05930229743909034,1.8951348647091932,1.1311340519695796,11.466651607212745,0.6500000000000002
66.0,-0.32518305086777144,0.04847544234248068,1.927732806131266,1.1404577908233848,10.762707981268637,0.6600000000000003
67.0,-0.3241617179940528,0.15584697646169793,1.9657338688947872,1.1548396279712425,11.401325829867702,0.6700000000000003
68.0,-0.32206706438289157,0.26309861744046537,1.9985989442471022,1.1710676217951625,10.710649809238795,0.6800000000000003
69.0,-0.3189021831133185,0.36988601794803244,2.036887847261654,1.1924775319132883,11.313013512170095,0.6900000000000003
70.0,-0.3146701937208028,0.4764758342682625,2.0701854244129523,1.2155446028588486,10.646748963478979,0.7000000000000003
71.0,-0.3093748918783472,0.5825287689764581,2.1088717405828428,1.243897773161381,11.200582302329163,0.7100000000000003
72.0,-0.3030202104350434,0.6883086835942184,2.142766292029915,1.2737217690182931,10.572085333759452,0.7200000000000003
73.0,-0.2956108826311351,0.7934699745478732,2.1819576568444234,1.3089127714603728,11.063000387715283,0.7300000000000003
74.0,-0.28715145757655286,0.89828627564012,2.2166125363893996,1.3453934368387437,10.48790592052453,0.7400000000000003
75.0,-0.27764745992829765,1.0023888587480294,2.256414825250324,1.3872959667519218,10.899806691966148,0.7500000000000003
76.0,-0.26710427657007263,1.1060796468237923,2.291991292770313,1.430313959307385,10.395645087747598,0.7600000000000003
77.0,-0.25552820611199417,1.2089596395098359,2.332507680268913,1.478783048730606,10.711842058547443,0.7700000000000004
78.0,-0.24292548129776081,1.3113697757506972,2.36916196801988,1.5282024257990954,10.297162989537885,0.7800000000000004
79.0,-0.22930315173731855,1.412882859351321,2.4104962455007284,1.5830845818157753,10.50248122630108,0.7900000000000004
80.0,-0.2146680633004975,1.5138826746339427,2.4483748782566197,1.638765183533861,10.195268196316514,0.8000000000000004
81.0,-0.19902765270152778,1.6139444003644727,2.4906315754275368,1.699928425709398,10.279966710387336,0.8100000000000004
82.0,-0.18238921876102854,1.7134435296005597,2.529764635308301,1.7617586984495146,10.090954917315743,0.8200000000000004
83.0,-0.1647749577874782,1.7927951222840899,2.5723305810631065,1.8132578059994486,4.579050407338963,0.8300000000000004
84.0,-0.1468594364547338,1.7736849899600762,2.6120875185335564,1.7808343040455477,-10.05667552726385,0.8400000000000004
85.0,-0.12961519279115274,1.674691466703216,2.653472479887021,1.6828378605083196,-10.197256145224147,0.8500000000000004
86.0,-0.11336862018053433,1.5741103835938999,2.693346877622091,1.5802589758116683,-10.167580587937975,0.8600000000000004
87.0,-0.09813734350692108,1.471634657317309,2.7329424878529442,1.4783772837830598,-10.444951319299873,0.8700000000000004
88.0,-0.08393871097270471,1.367544459623301,2.7706910144706454,1.3719541587952946,-10.292209608274542,0.8800000000000004
89.0,-0.07079045001761836,1.2615632964361458,2.8081888964907225,1.266434279090224,-10.712656508166843,0.8900000000000005
90.0,-0.05871000386213341,1.153957319076047,2.8437610306516508,1.1564191866675089,-10.428309906968616,0.9000000000000005
91.0,-0.04771431439178933,1.0446184594974108,2.8790448416961087,1.0476189448418007,-10.977513600817042,0.9100000000000005
92.0,-0.037819939381730006,0.9336827283315414,2.9124026615362073,0.9343732231381965,-10.57061442753977,0.9200000000000005
93.0,-0.029042361305189095,0.8212680649335797,2.9453738989064013,0.8227108191751081,-11.223557042600573,0.9300000000000005
94.0,-0.021396623123770414,0.7073136352597031,2.976490031177404,0.706651034582462,-10.71451236801307,0.9400000000000005
95.0,-0.014896384863224714,0.5921786886476631,3.007060169733704,0.5925462347546852,-11.441260195395865,0.9500000000000005
96.0,-0.009554863937954124,0.47558582602837995,3.0358791701381933,0.4740964765603411,-10.85590337120657,0.9600000000000005
97.0,-0.00538375430077884,0.358105925206816,3.0639803849829894,0.357914145246176,-11.62675518856414,0.9700000000000005
98.0,-0.0023946007250400954,0.23934191475742328,3.089839160234676,0.23759375200470448,-10.991479877326757,0.9800000000000005
99.0,-0.000598549486183699,0.11968832190094593,3.1153003773233183,0.11939672382526807,-11.780781219833152,0.9900000000000005
100.0,2.22825344580092e-07,0.0009385863691753135,3.131533632448535,-0.0001335088780316806,-10.963940226657789,1.0000000000000004
